Dust emission spectrum from A.P. Jones, M. Kohler, N. Ysard, M. Bocchio, and L. Verstraete (2017), A&A, 602A, 46J 
inside the DustPedia framework.

lambda    nu*dP/dnu     j_nu    j_nu(carb.) j_nu(sil)
 (um)   (erg s-1 H-1) (Jy cm2 sr-1 H-1)
0.9927057738263894 1.795479631193072e-20 4.731190809400873e-13 4.731190707446009e-13 1.01954863477461e-20
1.0001793341362166 1.8256129482966987e-20 4.846810245343152e-13 4.846810122670658e-13 1.2267249526407606e-20
1.0077091589558085 1.855873692411656e-20 4.964243255402754e-13 4.964243108000292e-13 1.4740246145152754e-20
1.0114953028030835 1.8710506053975373e-20 5.02364378718498e-13 5.02364362568774e-13 1.6149724018886967e-20
1.0152956718711033 1.8862579067637827e-20 5.083502495915436e-13 5.083502319035005e-13 1.7688043120090758e-20
1.0229392996569957 1.916746979622305e-20 5.204560777011828e-13 5.204560565040188e-13 2.1197164057940764e-20
1.0267826658714554 1.931994179448864e-20 5.265671657250225e-13 5.265671425311076e-13 2.3193915233265264e-20
1.0306404723013447 1.9472692248466382e-20 5.327244455462354e-13 5.327244201759813e-13 2.5370254072428498e-20
1.03451277320114 1.9625717071133798e-20 5.389280943907868e-13 5.389280666492791e-13 2.774150766477855e-20
1.0383996230291617 1.9779012324080872e-20 5.451782935247895e-13 5.451782632005539e-13 3.0324235492241743e-20
1.0403485208654093 1.9855760172670332e-20 5.483209072421001e-13 5.483208755416635e-13 3.1700436705022945e-20
1.0423010764483396 1.9932574221075233e-20 5.514752284228221e-13 5.514751952865002e-13 3.313632195565627e-20
1.0462171883269815 2.0086399131596607e-20 5.578190889384065e-13 5.578190527413313e-13 3.619707531126771e-20
1.0471985131304309 2.0124896044748773e-20 5.594124088743925e-13 5.594123718708678e-13 3.7003524597002917e-20
1.048180758391296 2.0163409125832265e-20 5.610086768718053e-13 5.610086390446541e-13 3.7827151116996037e-20
1.0501480137395462 2.024048358433816e-20 5.642100694765978e-13 5.642100299492644e-13 3.952733342032025e-20
1.0521189612883777 2.0317622098646708e-20 5.674232917932468e-13 5.674232504927623e-13 4.1300484490427557e-20
1.0531058218030118 2.035616451144342e-20 5.69032928611313e-13 5.690328863959034e-13 4.221540951790159e-20
1.0540936079674168 2.0394556560575808e-20 5.706408786245555e-13 5.70640835474646e-13 4.314990946003732e-20
1.058054026499678 2.0548275785136096e-20 5.771021113833279e-13 5.771020642937335e-13 4.7089594318549246e-20
1.0590464539527713 2.0586743119716727e-20 5.787247938460634e-13 5.787247457190838e-13 4.8126979902326696e-20
1.06003981227728 2.062522537661968e-20 5.803504325283651e-13 5.803503833421694e-13 4.918619567043425e-20
1.0620293250338977 2.0702234484756e-20 5.836105917388568e-13 5.836105403669858e-13 5.137187078934222e-20
1.0660195594769086 2.085642990861759e-20 5.901665310429476e-13 5.901664750180128e-13 5.602493489169388e-20
1.070024785945596 2.1010859483747457e-20 5.967701461303109e-13 5.967700850511485e-13 6.107916240841741e-20
1.0740450607676866 2.1165520818253846e-20 6.034216595030658e-13 6.034215929358001e-13 6.656726565512252e-20
1.07808044048254 2.1320411704515127e-20 6.101212995169614e-13 6.101212269925007e-13 7.252446060254589e-20
1.0861967418109137 2.1630638677710182e-20 6.236591114508797e-13 6.236590254502826e-13 8.600059729827459e-20
1.0902777775684922 2.1785435754830034e-20 6.304822210848596e-13 6.304821274806846e-13 9.360417486977561e-20
1.0943741465085532 2.1940446277339905e-20 6.373539986241959e-13 6.373538967777061e-13 1.0184648962306599e-19
1.1026131145906286 2.2251103078640774e-20 6.512445957207767e-13 6.512444752670897e-13 1.2045368675099772e-19
1.1109141095355224 2.256260197605497e-20 6.65333050922037e-13 6.653329086479612e-13 1.422740759391447e-19
1.1192775983109025 2.287469712208435e-20 6.796144388177566e-13 6.796142709893654e-13 1.678283911810979e-19
1.1277040513999907 2.3186275504942524e-20 6.940576823652231e-13 6.940574846493643e-13 1.977158588361469e-19
1.1361939428280308 2.349865921610507e-20 7.087041661336337e-13 7.087039335085441e-13 2.326250894969075e-19
1.1447477501889525 2.3811855351275743e-20 7.235565301533343e-13 7.235562568070133e-13 2.7334632081780614e-19
1.1533659546722406 2.4125983333792654e-20 7.386208862380285e-13 7.386205654523846e-13 3.2078564380544765e-19
1.1707974979042381 2.4757985263100304e-20 7.694253996401406e-13 7.694249595215558e-13 4.401185849214359e-19
1.1884924949847024 2.539388527124458e-20 8.011153067574788e-13 8.011147059473748e-13 6.008101039143054e-19
1.2064549276569216 2.6037952313407635e-20 8.338489033692886e-13 8.33848087258378e-13 8.16110910499993e-19
1.2246888378427687 2.6686136921697268e-20 8.675228099599931e-13 8.675217068416577e-13 1.1031183353595878e-18
1.2431983285522175 2.733794873652715e-20 9.021438137800821e-13 9.021423299654964e-13 1.4838145854904344e-18
1.2619875648066055 2.799438301889838e-20 9.377679998630634e-13 9.377660135442518e-13 1.9863188116474915e-18
1.3004222497298317 2.9317304647363523e-20 1.0119938296233788e-12 1.0119903203724473e-12 3.5092509314178946e-18
1.3400274889804893 3.0659052042147673e-20 1.090540661436058e-12 1.090534575517639e-12 6.085918418598888e-18
1.3808389325824078 3.2024588543377876e-20 1.173805161954829e-12 1.173794796482659e-12 1.0365472169994595e-17
1.4228933163050095 3.342505847416308e-20 1.2624493065864484e-12 1.262431959791404e-12 1.734679504398569e-17
1.466228494730424 3.488388823802316e-20 1.3576754806796652e-12 1.357646941964157e-12 2.853871550833892e-17
1.5108834753276823 3.6397772292741375e-20 1.459738989159501e-12 1.4596928120855145e-12 4.617707398647154e-17
1.5568984535646726 3.796461686488305e-20 1.5689486928720346e-12 1.5688751305729184e-12 7.356229911554102e-17
1.6043148490894465 3.959201203686468e-20 1.6860350905241315e-12 1.6859194961682828e-12 1.1559435584849677e-16
1.6531753430134553 4.1287565620230674e-20 1.8117890442426987e-12 1.811610086048295e-12 1.7895819440406618e-16
1.7035239163302658 4.3059797581851003e-20 1.9471062559043837e-12 1.946833231779503e-12 2.7302412488066363e-16
1.755405889504358 4.4937335539530285e-20 2.0938921197996388e-12 2.0934814419312652e-12 4.1067786837397627e-16
1.8088679632656115 4.691598202497566e-20 2.2526675931730023e-12 2.2520583299152367e-12 6.092632577660807e-16
1.8639582606462262 4.8989666015981496e-20 2.4238743046106033e-12 2.4229824718047924e-12 8.918328058117446e-16
1.9207263702978936 5.1158124035170596e-20 2.608251961101979e-12 2.606963419433063e-12 1.2885416689154227e-15
1.979223391128241 5.342300545215254e-20 2.8066778339036314e-12 2.804839535908197e-12 1.8382979954350677e-15
2.039501978296691 5.578350145134216e-20 3.0199470948035018e-12 3.017356566320088e-12 2.5905284834141606e-15
2.1016163906111602 5.82543495960386e-20 3.2497596174418523e-12 3.2461522299161678e-12 3.60738752568459e-15
2.1656225393682647 6.083617772907782e-20 3.4971488354221316e-12 3.4921831863234353e-12 4.9656490986969106e-15
2.231578038680979 6.350988555189739e-20 3.762035089091354e-12 3.755276273715885e-12 6.758815375470519e-15
2.299542257339062 6.626444135989113e-20 4.0447470676261025e-12 4.035647798879051e-12 9.09926874705097e-15
2.369576372248914 6.909395900359179e-20 4.345904931716101e-12 4.33378441741661e-12 1.2120514299492343e-14
2.4417434235010123 7.199378772661795e-20 4.666212179717147e-12 4.6502334712745405e-12 1.5978708442605476e-14
2.5161083711144245 7.497119989681039e-20 5.007180386401256e-12 4.9863256344370206e-12 2.0854751964235316e-14
2.5927381535095444 7.80492833316125e-20 5.371517701574158e-12 5.344562442939658e-12 2.695525863449843e-14
2.6717017477616296 8.1244747004266e-20 5.761727283721107e-12 5.727215689246132e-12 3.451159447497508e-14
2.753070231689431 8.45905763866804e-20 6.181711144814819e-12 6.137931583150938e-12 4.377956166387793e-14
2.836916847834745 8.820666467987419e-20 6.64228399414527e-12 6.587243963636256e-12 5.504003050901506e-14
2.9233170693905177 9.237623448485716e-20 7.168125670434195e-12 7.099543387727395e-12 6.858228270680098e-14
2.967498994190263 9.495623685577534e-20 7.479688448012297e-12 7.403538623514427e-12 7.614982449786939e-14
3.0123486681368425 9.770875558032878e-20 7.812826024884764e-12 7.728382594809306e-12 8.444343007545793e-14
3.0578761833420214 1.0240395301843894e-19 8.312009886800257e-12 8.218461462523232e-12 9.354842427702379e-14
3.1040917844459814 1.0792300671909418e-19 8.892380213078966e-12 8.788952062651295e-12 1.034281504276741e-13
3.127460860933648 1.1318034241027967e-19 9.395768762609483e-12 9.287062017059243e-12 1.0870674555023973e-13
3.1510058709225794 1.1989391418716497e-19 1.0028033688613202e-11 9.913832937117637e-12 1.14200751495564e-13
3.162844764501044 1.2604098383067477e-19 1.0581788923706133e-11 1.0464748148075478e-11 1.1704077563065584e-13
3.1747281389236908 1.3299793042573482e-19 1.1207812513447827e-11 1.1087876168335871e-11 1.199363451119559e-13
3.1986289994194426 1.5187320545104831e-19 1.2894795609268272e-11 1.2768883767272273e-11 1.2591184199600445e-13
3.2227097969389145 1.9580747473436849e-19 1.675019621707063e-11 1.6617960824732512e-11 1.3223539233811323e-13
3.2348180950136065 2.3708922091364034e-19 2.0357812327251144e-11 2.0222204395893754e-11 1.3560793135738748e-13
3.240889293275058 2.6795151453167826e-19 2.305100395513234e-11 2.29136170825674e-11 1.3738687256493373e-13
3.2469718861334385 3.0372966860335044e-19 2.6177922500515253e-11 2.6038694955204516e-11 1.3922754531074593e-13
3.2714166318528037 4.912996487318336e-19 4.266303466041255e-11 4.251620730653972e-11 1.4682735387283128e-13
3.2744851364798273 5.029981902747119e-19 4.371987171926727e-11 4.357215066390756e-11 1.4772105535972052e-13
3.2775565192852394 5.15008278414556e-19 4.48057583923303e-11 4.465713934341734e-11 1.4861904891296965e-13
3.283707930232385 5.033544160003343e-19 4.387406132385778e-11 4.3723840261638086e-11 1.5022106221968697e-13
3.2898708863219004 4.664854495901689e-19 4.073675105667367e-11 4.05850756465302e-11 1.516754101434788e-13
3.29141343181113 4.577704419914321e-19 3.9994439725637154e-11 3.984239921152221e-11 1.5204051411493759e-13
3.292184975758714 4.534851408240554e-19 3.9629329363809747e-11 3.947710606997017e-11 1.522232938395666e-13
3.295272960557952 4.2680623853069775e-19 3.733288792993232e-11 3.717995433286355e-11 1.529335970687679e-13
3.3076538914384823 3.3363200362564543e-19 2.929255108144535e-11 2.913676633825705e-11 1.5578474318829615e-13
3.310756385682612 3.144552105450569e-19 2.763474451409823e-11 2.7478241479922405e-11 1.5650303417581762e-13
3.313861789986515 2.966780514712994e-19 2.6096919296571515e-11 2.5939695767648894e-11 1.5722352892261295e-13
3.3200813396944477 2.718378238458786e-19 2.395675776872234e-11 2.3797982856279424e-11 1.5877491244290442e-13
3.345076488085796 2.283685397038474e-19 2.0277376295054815e-11 2.0111683276175216e-11 1.6569301887958905e-13
3.3482140837626964 2.3009774032648455e-19 2.045007973273397e-11 2.0283449351644583e-11 1.666303810893824e-13
3.3513546224236106 2.3184251466956e-19 2.062447473558534e-11 2.0456902961264917e-11 1.6757177432043195e-13
3.3576445397418455 2.4422712267680037e-19 2.1766973232851734e-11 2.159743258432349e-11 1.695406485282457e-13
3.3702598118196083 2.8914390757323035e-19 2.5867047505998732e-11 2.56933773708986e-11 1.7367013510014254e-13
3.382922481734668 2.997863239387396e-19 2.6919890933381634e-11 2.6742212934509226e-11 1.7767799887240168e-13
3.389271646505754 3.052712470992391e-19 2.7463868590226827e-11 2.728416029924773e-11 1.7970829097910024e-13
3.395632727569191 3.11317647871833e-19 2.806040172529759e-11 2.787860109103356e-11 1.818006342640284e-13
3.421196662673239 3.4071054945476055e-19 3.0940907940780226e-11 3.0750452355532935e-11 1.9045558524729195e-13
3.4276182099114902 3.3531002470753863e-19 3.050762589536241e-11 3.031524530055684e-11 1.9238059480556483e-13
3.4340518103208963 3.110010261173322e-19 2.8349023123095648e-11 2.8154824959648208e-11 1.9419816344743136e-13
3.4469541582030403 2.7607380396978385e-19 2.5259813520717495e-11 2.506213315689772e-11 1.9768036381977518e-13
3.472904465399547 2.661616384823628e-19 2.4536224184074264e-11 2.4330512581598414e-11 2.0571160247584334e-13
3.4990501388274233 2.513242882626875e-19 2.3342859714566037e-11 2.312894389723443e-11 2.1391581733160118e-13
3.5253949054701885 1.9942345914960626e-19 1.8661796563620752e-11 1.843993336153377e-11 2.2186320208698527e-13
3.5519380250092896 1.5000131809787912e-19 1.4142620503710469e-11 1.3912787943206135e-11 2.2983256050433206e-13
3.578680990867387 1.3063680534105254e-19 1.2409605366920093e-11 1.2171040493719852e-11 2.3856487320024263e-13
3.605625307711299 1.2310032920588206e-19 1.1781734745307705e-11 1.15339842488077e-11 2.477504965000024e-13
3.660119384959845 1.181392521029325e-19 1.1477806571317502e-11 1.121080897363297e-11 2.66997597684534e-13
3.715437065384467 1.146798377822146e-19 1.1310099153769212e-11 1.1022885877418882e-11 2.8721327635032834e-13
3.8285932144167436 1.138293298078324e-19 1.1568121388991888e-11 1.1237720794918026e-11 3.304005940738634e-13
3.94519561050918 1.1441021658057133e-19 1.1981267981953306e-11 1.1604164862544056e-11 3.771031194092501e-13
4.06534921144712 1.1542482675960057e-19 1.2455653598371234e-11 1.202848077078526e-11 4.27172827585973e-13
4.189162171576248 1.1658239858961778e-19 1.2963718516715815e-11 1.2483109555218067e-11 4.806089614977508e-13
4.316745939156006 1.177634430055141e-19 1.349386673198171e-11 1.2956763808567291e-11 5.371029234144181e-13
4.448215356677963 1.1891807591471159e-19 1.404116399898078e-11 1.3445419156022955e-11 5.9574484295783e-13
4.58368876423945 1.200418656614529e-19 1.460552897415246e-11 1.3949022243555523e-11 6.565067305969398e-13
4.723288106065518 1.2116066414740655e-19 1.5190620543162553e-11 1.4470944332457931e-11 7.196762107046249e-13
4.867139040275056 1.223106305636144e-19 1.5801830216066125e-11 1.50184568902356e-11 7.83373325830528e-13
4.940699165968905 1.2297846997217074e-19 1.6128238220078705e-11 1.531264221183035e-11 8.155960082483537e-13
5.015371051989984 1.235964988179494e-19 1.645427193269281e-11 1.5606322341762557e-11 8.479495909302568e-13
5.091171501069577 1.2441620975424108e-19 1.6813732230660132e-11 1.5932562826747457e-11 8.811694039126754e-13
5.129500256944802 1.248055609730681e-19 1.699332743353708e-11 1.609554459462033e-11 8.977828389167522e-13
5.168117569889187 1.2520379243478427e-19 1.717589204736586e-11 1.6261314186837223e-11 9.14577860528641e-13
5.20702561229733 1.2578174825717962e-19 1.73850832102241e-11 1.6452055572693297e-11 9.330276375308011e-13
5.246226572918644 1.2635215408214486e-19 1.7595399271169227e-11 1.6643875099087653e-11 9.515241720815725e-13
5.265937586045735 1.266346555047882e-19 1.770099639689035e-11 1.6740209446039994e-11 9.607869508503552e-13
5.285722656980489 1.2691542858640244e-19 1.780689613838604e-11 1.6836838360966553e-11 9.700577774194877e-13
5.305582063971359 1.2719453001018318e-19 1.7913106350699208e-11 1.6933770927259723e-11 9.793354234394823e-13
5.3255160863122235 1.2750741034422747e-19 1.80246383327235e-11 1.7035936703555778e-11 9.887016291677234e-13
5.365609099470188 1.2840232815317808e-19 1.8287795691327143e-11 1.7279706768411943e-11 1.008088922915202e-12
5.406003951863644 1.293056168411064e-19 1.8555095001987997e-11 1.752757731541383e-11 1.0275176865741697e-12
5.446702915881641 1.302187181407803e-19 1.882680120116565e-11 1.777982314468335e-11 1.0469780564823042e-12
5.487708281020852 1.3121018329739077e-19 1.911296181129907e-11 1.804640848472914e-11 1.0665533265699276e-12
5.529022354014368 1.3281033978098168e-19 1.9491697674809138e-11 1.8404739601850692e-11 1.086958072958448e-12
5.570647458961463 1.344681879555591e-19 1.9883583634737192e-11 1.8776183026002312e-11 1.10740060873488e-12
5.612585937458331 1.361894397541643e-19 2.0289711421698944e-11 1.91618405196223e-11 1.1278709020766493e-12
5.654840148729818 1.3808057478023018e-19 2.0726327299015482e-11 1.9577854769976725e-11 1.1484725290387563e-12
5.67608639626678 1.3949903659724256e-19 2.101791535292209e-11 1.9858644233218765e-11 1.15927111970332e-12
5.686739436050992 1.4022470786203803e-19 2.1166902359947758e-11 2.000222781001425e-11 1.1646745499335139e-12
5.6974124697621304 1.4096172737664979e-19 2.1318090809712128e-11 2.0148010285516815e-11 1.1700805241953077e-12
5.718818669136295 1.4247101940851952e-19 2.1627299330320566e-11 2.0446399865645532e-11 1.1808994646750335e-12
5.740305295436557 1.441542165872858e-19 2.1965028649585318e-11 2.0773212479397218e-11 1.191816170188104e-12
5.7835210386641895 1.487175872057473e-19 2.283095529319801e-11 2.161658903882316e-11 1.2143662543748489e-12
5.827062130521658 1.5392407061859815e-19 2.3808148450692475e-11 2.2570964545462377e-11 1.2371839052301035e-12
5.8489554468988025 1.5775944092745003e-19 2.4493063295952526e-11 2.324349552914802e-11 1.2495677668045126e-12
5.870931020387893 1.6182681906207163e-19 2.5218944640583732e-11 2.3956965364910275e-11 1.2619792756734606e-12
5.892989160043636 1.661446516519255e-19 2.5989112003947548e-11 2.4714694869964898e-11 1.2744171339826557e-12
5.915130176081913 1.710685195846489e-19 2.685986569741487e-11 2.557253532114077e-11 1.2873303762741008e-12
5.95966208400165 1.8517001753128065e-19 2.929285733432435e-11 2.7975745866508068e-11 1.317111467816287e-12
6.004529249263818 2.055986044706814e-19 3.276940532892118e-11 3.14185796798411e-11 1.3508256490800812e-12
6.027089341400364 2.199050951422582e-19 3.518133815334809e-11 3.3810854807869e-11 1.3704833454790847e-12
6.049734195844842 2.3669461807749026e-19 3.800967094465404e-11 3.661832618870994e-11 1.391344755944094e-12
6.095279466722835 2.8534625084143016e-19 4.616737972790203e-11 4.472415576081103e-11 1.4432239670909974e-12
6.141167624020661 3.5976042388246847e-19 5.864537544773822e-11 5.7134074507681074e-11 1.5113009400571493e-12
6.164241091010745 4.0718477018529197e-19 6.662551438841538e-11 6.507112909515567e-11 1.5543852932597074e-12
6.187401249150058 4.605315239141778e-19 7.56374845484453e-11 7.403892824940055e-11 1.5985562990447355e-12
6.1990139391386085 4.864058871994589e-19 8.003701234237163e-11 7.841599337688216e-11 1.6210189654894896e-12
6.204828454712694 4.999792590903846e-19 8.234764824373494e-11 8.071529109071296e-11 1.6323571530219488e-12
6.210648424152782 5.097511843664099e-19 8.403585474192326e-11 8.239391638773195e-11 1.641938354191321e-12
6.233982942956859 5.42371774193362e-19 8.974951757912557e-11 8.807450869918878e-11 1.6750088799368224e-12
6.239830258556775 5.462034728979016e-19 9.046834926021892e-11 8.878900365403134e-11 1.6793456061875802e-12
6.245683058788269 5.459842464087189e-19 9.051686143398851e-11 8.883317479258402e-11 1.6836866414045186e-12
6.257405133728602 5.438211145672216e-19 9.032745474749957e-11 8.863631714571817e-11 1.6911376017813977e-12
6.269149208991335 5.358094094052825e-19 8.916376025801563e-11 8.747059823852581e-11 1.6931620194898413e-12
6.280915325867298 5.175946516273161e-19 8.6294308257805e-11 8.460582241078964e-11 1.688485847015378e-12
6.304513850009849 4.73466123337205e-19 7.923370181340043e-11 7.756061583122991e-11 1.673085982170524e-12
6.32820103803542 4.198636720455427e-19 7.052742055336591e-11 6.887616716775904e-11 1.65125338560687e-12
6.3519772230701035 3.7099693829351264e-19 6.255307889122847e-11 6.092159522100776e-11 1.631483670220706e-12
6.375842739491607 3.2980656387306074e-19 5.581697863344659e-11 5.4203140655814704e-11 1.6138379776318857e-12
6.399797922933955 2.970212788145792e-19 5.045721290006108e-11 4.885341562205335e-11 1.6037972780077306e-12
6.42384311029221 2.696477784771907e-19 4.597917826307537e-11 4.438389809557459e-11 1.59528016750076e-12
6.447978639727206 2.4966292752161405e-19 4.2731396074780903e-11 4.1138723309522674e-11 1.592672765258219e-12
6.472204850670314 2.329153392866784e-19 4.001471967770747e-11 3.842348700779473e-11 1.5912326699127373e-12
6.496522083828205 2.2185332223820863e-19 3.8257473736246955e-11 3.6662911345960536e-11 1.5945623902864195e-12
