Dust emission spectrum from A.P. Jones, M. Kohler, N. Ysard, M. Bocchio, and L. Verstraete (2017), A&A, 602A, 46J 
inside the DustPedia framework.

lambda    nu*dP/dnu     j_nu    j_nu(carb.) j_nu(sil)
 (um)   (erg s-1 H-1) (Jy cm2 sr-1 H-1)
0.9927057738263894 1.1471177051215963e-20 3.0227203079803207e-13 3.0227202478311075e-13 6.0149213108038405e-21
1.0001793341362166 1.1663871855774786e-20 3.096635224004295e-13 3.096635151626485e-13 7.237780919100035e-21
1.0077091589558085 1.185735977491709e-20 3.1717039004430025e-13 3.1717038134667817e-13 8.697622133890485e-21
1.0114953028030835 1.1954392780872748e-20 3.209673263243498e-13 3.2096731679462926e-13 9.529720567469803e-21
1.0152956718711033 1.2051614173825843e-20 3.2479339390849103e-13 3.2479338347056025e-13 1.0437930911369415e-20
1.0229392996569957 1.224651479212617e-20 3.3253074724945975e-13 3.325307347396012e-13 1.250985869179113e-20
1.0267826658714554 1.2343972851914001e-20 3.364363551174468e-13 3.364363414285292e-13 1.368891760164917e-20
1.0306404723013447 1.2441602339161794e-20 3.4037130681602145e-13 3.40371291841928e-13 1.4974093375435792e-20
1.03451277320114 1.2539400462411427e-20 3.443357086783853e-13 3.4433569230393497e-13 1.637445016778469e-20
1.0383996230291617 1.2637364523497181e-20 3.4832966948419494e-13 3.483296515844133e-13 1.789978167337862e-20
1.0403485208654093 1.2686407963623835e-20 3.5033776917955723e-13 3.50337750466971e-13 1.8712586375333894e-20
1.0423010764483396 1.2735491919829489e-20 3.5235330056561614e-13 3.523532810049502e-13 1.9560665965764495e-20
1.0462171883269815 1.283378014666002e-20 3.5640671591477344e-13 3.564066945462493e-13 2.136852414100191e-20
1.0471985131304309 1.2858377049105652e-20 3.5742473716440945e-13 3.5742471531953246e-13 2.184487706265802e-20
1.048180758391296 1.2882983816084669e-20 3.584446290663767e-13 3.5844460673499337e-13 2.2331383381350047e-20
1.0501480137395462 1.293222679932671e-20 3.604900322925674e-13 3.6049000895688435e-13 2.3335683005765132e-20
1.0521189612883777 1.298150881180668e-20 3.6254294063915155e-13 3.62542916256035e-13 2.4383116371377623e-20
1.0531058218030118 1.3006131851610598e-20 3.6357130505927864e-13 3.635712801356871e-13 2.4923591526676022e-20
1.0540936079674168 1.303065802200973e-20 3.645985692628271e-13 3.6459854378718905e-13 2.5475638096633103e-20
1.058054026499678 1.3128854280395059e-20 3.687262914166619e-13 3.687262636136063e-13 2.7803055592884196e-20
1.0590464539527713 1.315342607820248e-20 3.697628979586699e-13 3.697628695427432e-13 2.841592665256266e-20
1.06003981227728 1.3178006906394332e-20 3.708013788134014e-13 3.7080134977169736e-13 2.9041704048605754e-20
1.0620293250338977 1.3227195531577657e-20 3.728839713854965e-13 3.728839410524813e-13 3.0333015175631614e-20
1.0660195594769086 1.3325679825064154e-20 3.770717361794338e-13 3.770717030972323e-13 3.308220146734131e-20
1.070024785945596 1.3424305322421786e-20 3.812897161658944e-13 3.8128968009730413e-13 3.6068590322875743e-20
1.0740450607676866 1.352307029936199e-20 3.855380451862106e-13 3.855380058746688e-13 3.9311541816054925e-20
1.07808044048254 1.3621973147794484e-20 3.8981686067335423e-13 3.8981681784145487e-13 4.2831899376969726e-20
1.0861967418109137 1.3820035770166332e-20 3.9846217012181704e-13 3.9846211932554743e-13 5.0796269656854636e-20
1.0902777775684922 1.3918849964953663e-20 4.0281899979463466e-13 4.028189445042484e-13 5.529038624194552e-20
1.0943741465085532 1.401779090276887e-20 4.072066251899787e-13 4.0720656502764047e-13 6.016233819649988e-20
1.1026131145906286 1.4216049260478166e-20 4.160748894410446e-13 4.16074818279109e-13 7.11619358823174e-20
1.1109141095355224 1.4414804648020736e-20 4.2506825964004806e-13 4.25068175577386e-13 8.406266210257092e-20
1.1192775983109025 1.461389798797402e-20 4.341835009674618e-13 4.341834017945258e-13 9.91729359880335e-20
1.1277040513999907 1.481261494517355e-20 4.4340063139610756e-13 4.4340051454838273e-13 1.1684772477030024e-19
1.1361939428280308 1.5011800262690128e-20 4.527460605089741e-13 4.527459230139649e-13 1.3749500916177119e-19
1.1447477501889525 1.521145674363917e-20 4.622213892045763e-13 4.622212276215169e-13 1.6158305939636094e-19
1.1533659546722406 1.5411659581396358e-20 4.71830453537012e-13 4.718302638881256e-13 1.8964888628437903e-19
1.1707974979042381 1.5814309836189137e-20 4.914750346781293e-13 4.914747744152286e-13 2.60262900632616e-19
1.1884924949847024 1.6219232076320553e-20 5.116773168580775e-13 5.116769614813417e-13 3.553767356757161e-19
1.2064549276569216 1.6629151021506813e-20 5.325380112976729e-13 5.325375284478614e-13 4.828498115284638e-19
1.2246888378427687 1.704145318492425e-20 5.539898635822068e-13 5.539892107555547e-13 6.528266521375427e-19
1.2431983285522175 1.7455814158082882e-20 5.760364432964303e-13 5.760355649415962e-13 8.783548340654837e-19
1.2619875648066055 1.787285163435835e-20 5.987125459306182e-13 5.987113698001855e-13 1.1761304325107989e-18
1.3004222497298317 1.8712456640820864e-20 6.459287743325583e-13 6.459266953166958e-13 2.0790158623944476e-18
1.3400274889804893 1.9562814630900527e-20 6.9584815531168e-13 6.958445477652801e-13 3.60754639997563e-18
1.3808389325824078 2.042700091875704e-20 7.487159152479146e-13 7.487097674085686e-13 6.147839345824643e-18
1.4228933163050095 2.131207342713154e-20 8.049473523224811e-13 8.049370578236335e-13 1.02944988476815e-17
1.466228494730424 2.2232985697978767e-20 8.653043301390307e-13 8.652873837317307e-13 1.6946407300000122e-17
1.5108834753276823 2.3187574088710815e-20 9.299416922849934e-13 9.299142556124233e-13 2.7436672570081673e-17
1.5568984535646726 2.417449455233348e-20 9.990497668846311e-13 9.990060321987222e-13 4.3734685908804394e-17
1.6043148490894465 2.519865429279672e-20 1.0730905853454148e-12 1.0730218190767901e-12 6.876626862475068e-17
1.6531753430134553 2.6265010782797415e-20 1.1525663494161427e-12 1.1524598217711597e-12 1.0652764498299683e-16
1.7035239163302658 2.737917739260892e-20 1.238049655977344e-12 1.2378870308594772e-12 1.6262511786703741e-16
1.755405889504358 2.8559704411833176e-20 1.3307629233855898e-12 1.3305181480131433e-12 2.447753724468075e-16
1.8088679632656115 2.9804157376709205e-20 1.4310445303819837e-12 1.4306811552385481e-12 3.6337514343579057e-16
1.8639582606462262 3.110898754472571e-20 1.5391873773443043e-12 1.5386551202284852e-12 5.322571158189764e-16
1.9207263702978936 3.247441208697474e-20 1.655679339478016e-12 1.6549098044637264e-12 7.695350142895404e-16
1.979223391128241 3.3901922734775e-20 1.7811011241519862e-12 1.7800025184355315e-12 1.098605716454791e-15
2.039501978296691 3.5391505903163363e-20 1.9159872122083803e-12 1.9144379868881486e-12 1.5492253202314683e-15
2.1016163906111602 3.695312824177797e-20 2.061456092652803e-12 2.0592972367644756e-12 2.1588558883272975e-15
2.1656225393682647 3.8587761713538564e-20 2.218205531238488e-12 2.215231702027503e-12 2.9738292109843085e-15
2.231578038680979 4.028379410536605e-20 2.386227681394254e-12 2.382177034730011e-12 4.050646664243253e-15
2.299542257339062 4.2034739246249085e-20 2.565778641085841e-12 2.5603213283799655e-12 5.457312705875058e-15
2.369576372248914 4.38374574535807e-20 2.757309398517857e-12 2.750034667651993e-12 7.274730865863982e-15
2.4417434235010123 4.568958199483724e-20 2.9613288968774486e-12 2.9517312173337707e-12 9.597679543678922e-15
2.5161083711144245 4.7596425625338565e-20 3.1788725428168145e-12 3.166336408165484e-12 1.2536134651330707e-14
2.5927381535095444 4.9573555147605234e-20 3.411757515747362e-12 3.395541589441054e-12 1.62159263063083e-14
2.6717017477616296 5.16326427538533e-20 3.6616915856711404e-12 3.640913348024937e-12 2.077823764620318e-14
2.753070231689431 5.379607943848196e-20 3.931310531471571e-12 3.904931032375296e-12 2.6379499096276184e-14
2.836916847834745 5.614295521280204e-20 4.227769569878058e-12 4.1945777173073455e-12 3.31918525707127e-14
2.9233170693905177 5.885962699896512e-20 4.567334938431874e-12 4.525941631506189e-12 4.139330692568475e-14
2.967498994190263 6.054610686475293e-20 4.769207701188157e-12 4.7232260229577165e-12 4.5981678230439565e-14
3.0123486681368425 6.234807904060268e-20 4.985374050020767e-12 4.934361539129846e-12 5.101251089092128e-14
3.0578761833420214 6.542489061270355e-20 5.310462356054732e-12 5.253924613513831e-12 5.653774254089959e-14
3.1040917844459814 6.904746744208024e-20 5.689207073736372e-12 5.626670517367656e-12 6.253655636871704e-14
3.127460860933648 7.249810129588636e-20 6.018495623870094e-12 5.95275262644599e-12 6.574299742410531e-14
3.1510058709225794 7.690714533792897e-20 6.432582083689997e-12 6.363500807026052e-12 6.90812766639445e-14
3.162844764501044 8.094143897017092e-20 6.795450149088265e-12 6.724642832592022e-12 7.080731649624082e-14
3.1747281389236908 8.551024462197623e-20 7.205997767291009e-12 7.133430387583578e-12 7.256737970742989e-14
3.1986289994194426 9.791270266501639e-20 8.31327872923175e-12 8.237078353323136e-12 7.62003759086125e-14
3.2227097969389145 1.267773181436483e-19 1.0845065836536059e-11 1.0765019853650083e-11 8.004598288597679e-14
3.2348180950136065 1.5390254186761435e-19 1.3214936773397395e-11 1.3132839567016078e-11 8.209720638131554e-14
3.240889293275058 1.7418046260678736e-19 1.4984183013383053e-11 1.49010038344291e-11 8.317917895394943e-14
3.2469718861334385 1.9768731433659315e-19 1.703831969341321e-11 1.695402099573885e-11 8.429869767435778e-14
3.2714166318528037 3.2099322335715733e-19 2.7874119285843104e-11 2.7785197473793262e-11 8.892181204984853e-14
3.2744851364798273 3.2868772011634537e-19 2.8569058968853908e-11 2.847959326151647e-11 8.946570733744077e-14
3.2775565192852394 3.3658767096542116e-19 2.928315232046488e-11 2.9193140084236895e-11 9.001223622797565e-14
3.283707930232385 3.289394538690996e-19 2.8671467483220758e-11 2.8580479754735283e-11 9.098772848548246e-14
3.2898708863219004 3.047175219917553e-19 2.6610051496547745e-11 2.65181777417072e-11 9.187375484053523e-14
3.29141343181113 2.989923129728502e-19 2.612232888519549e-11 2.6030232688406467e-11 9.209619678902728e-14
3.292184975758714 2.9617718902772956e-19 2.5882443143999527e-11 2.579023558580408e-11 9.220755819545545e-14
3.295272960557952 2.7864133827200412e-19 2.4372853335429633e-11 2.4280212928536777e-11 9.264040689285384e-14
3.3076538914384823 2.174105830960196e-19 1.9088428393496728e-11 1.8994050318512208e-11 9.43780749845248e-14
3.310756385682612 2.0481198244176716e-19 1.799915097095591e-11 1.790433507932232e-11 9.481589163359155e-14
3.313861789986515 1.9313434416026427e-19 1.698882464661958e-11 1.6893569577012097e-11 9.525506960748007e-14
3.3200813396944477 1.768166960677378e-19 1.558265401492551e-11 1.548645351218644e-11 9.620050273907165e-14
3.345076488085796 1.4825592050189128e-19 1.3163989627840727e-11 1.3063573736987806e-11 1.0041589085291949e-13
3.3482140837626964 1.4939387182869683e-19 1.3277473243082698e-11 1.3176486219751083e-11 1.0098702333161426e-13
3.3513546224236106 1.5054214734308663e-19 1.3392076595371366e-11 1.3290515959747825e-11 1.0156063562354443e-13
3.3576445397418455 1.5868581042812854e-19 1.4143022896738124e-11 1.4040262664457274e-11 1.0276023228085291e-13
3.3702598118196083 1.8822840276340427e-19 1.6839064938714334e-11 1.673378865829196e-11 1.0527628042237058e-13
3.382922481734668 1.952317005262482e-19 1.75312069471828e-11 1.742348791007357e-11 1.0771903710922834e-13
3.389271646505754 1.988417387740965e-19 1.7888888769693796e-11 1.7779932132369615e-11 1.0895663732417654e-13
3.395632727569191 2.0281849149280369e-19 1.82809050097601e-11 1.817067294985399e-11 1.102320599061171e-13
3.421196662673239 2.2214172815979414e-19 2.0173331209724242e-11 2.0057822521314596e-11 1.1550868840964485e-13
3.4276182099114902 2.185962403901945e-19 1.9888616004765776e-11 1.9771932811346363e-11 1.1668319341941184e-13
3.4340518103208963 2.0261915930394634e-19 1.8469570033259956e-11 1.835177745220414e-11 1.177925810558093e-13
3.4469541582030403 1.7967091254451122e-19 1.6439277036470386e-11 1.631935814679979e-11 1.1991888967059586e-13
3.472904465399547 1.7318296382200582e-19 1.5964945397196052e-11 1.5840123844617596e-11 1.2482155257845882e-13
3.4990501388274233 1.6345028536513653e-19 1.5181171338268206e-11 1.5051339601859832e-11 1.2983173640837333e-13
3.5253949054701885 1.2931696226048721e-19 1.2101318732618119e-11 1.196663051998091e-11 1.346882126372087e-13
3.5519380250092896 9.681721778050767e-20 9.128247582473539e-12 8.988686955813924e-12 1.3956062665961514e-13
3.578680990867387 8.40864693251895e-20 7.987640989069107e-12 7.84274121253359e-12 1.4489977653551832e-13
3.605625307711299 7.913529884594853e-20 7.57391232020418e-12 7.423394761351104e-12 1.505175588530765e-13
3.660119384959845 7.58866217761242e-20 7.372756730660421e-12 7.210461193534536e-12 1.6229553712588725e-13
3.715437065384467 7.362873853015679e-20 7.26150602797739e-12 7.086830040384993e-12 1.74675987592398e-13
3.8285932144167436 7.311104224713877e-20 7.430048239925776e-12 7.228889536926651e-12 2.011587029991224e-13
3.94519561050918 7.354325375396025e-20 7.701597443183438e-12 7.47174978375723e-12 2.298476594262097e-13
4.06534921144712 7.42688117959196e-20 8.014450780327104e-12 7.753787428452793e-12 2.606633518743107e-13
4.189162171576248 7.50961597630304e-20 8.350535660886147e-12 8.056919346347419e-12 2.936163145387269e-13
4.316745939156006 7.594669990659838e-20 8.70231560082241e-12 8.373786625106765e-12 3.2852897571564697e-13
4.448215356677963 7.678785030912785e-20 9.066668721523319e-12 8.701815077901829e-12 3.6485364362149144e-13
4.58368876423945 7.761669501280236e-20 9.443646028332805e-12 9.0410624129826e-12 4.025836153502025e-13
4.723288106065518 7.845032777993449e-20 9.835776067898169e-12 9.39386921234596e-12 4.419068555522073e-13
4.867139040275056 7.931364233323767e-20 1.0246866557651896e-11 9.7651891076797e-12 4.816774499721958e-13
4.940699165968905 7.981035860605262e-20 1.0466876651820522e-11 9.965034835485506e-12 5.018418163350148e-13
5.015371051989984 8.027640861851255e-20 1.0687113873141065e-11 1.0164993858154475e-11 5.221200149865926e-13
5.091171501069577 8.087876245159556e-20 1.0930037634922742e-11 1.0387070008496568e-11 5.429676264261752e-13
5.129500256944802 8.116731644378896e-20 1.1051613201181518e-11 1.049820627596506e-11 5.534069252164593e-13
5.168117569889187 8.146238247242779e-20 1.1175293176494261e-11 1.0611326590660537e-11 5.639665858337238e-13
5.20702561229733 8.187719303356835e-20 1.1316759654172775e-11 1.074120885989156e-11 5.755507942812137e-13
5.246226572918644 8.228775908052779e-20 1.145913171539884e-11 1.087195812235301e-11 5.871735930458342e-13
5.265937586045735 8.249153557277374e-20 1.1530669611150871e-11 1.0937671971344063e-11 5.929976398068058e-13
5.285722656980489 8.269435542217481e-20 1.1602449084675055e-11 1.1003619949174428e-11 5.988291355006277e-13
5.305582063971359 8.289625587208728e-20 1.1674475682190026e-11 1.1069808344859904e-11 6.046673373301211e-13
5.3255160863122235 8.312084439256961e-20 1.175008694821699e-11 1.1139524412458329e-11 6.105625357586583e-13
5.365609099470188 8.374997285452949e-20 1.1928151262885968e-11 1.1305387704151328e-11 6.227635587346385e-13
5.406003951863644 8.438568698247004e-20 1.21091757420857e-11 1.1474175057035966e-11 6.350006850497347e-13
5.446702915881641 8.502895367920185e-20 1.2293341772346395e-11 1.1646073818834665e-11 6.472679535117297e-13
5.487708281020852 8.572553849550276e-20 1.2487361135712822e-11 1.1827744260462005e-11 6.596168752508175e-13
5.529022354014368 8.682972196886961e-20 1.2743425644388708e-11 1.2070936953238916e-11 6.724886911497925e-13
5.570647458961463 8.797393408494494e-20 1.3008556913349434e-11 1.2323161698273917e-11 6.853952150755189e-13
5.612585937458331 8.916202996852136e-20 1.3283495850337067e-11 1.2585165472193207e-11 6.983303781438602e-13
5.654840148729818 9.046527575585484e-20 1.357912159256158e-11 1.286776322761039e-11 7.113583649511857e-13
5.67608639626678 9.143392257271517e-20 1.3776083992374656e-11 1.3057899314739554e-11 7.181846776351045e-13
5.686739436050992 9.192946018492572e-20 1.387674067862199e-11 1.3155139135149534e-11 7.216015434724555e-13
5.6974124697621304 9.243273605591437e-20 1.3978896950978661e-11 1.3253876197135232e-11 7.250207538434296e-13
5.718818669136295 9.34633188758215e-20 1.4187862079771982e-11 1.345599625867958e-11 7.31865821092398e-13
5.740305295436557 9.461094173593172e-20 1.4416033710229161e-11 1.3677258970330084e-11 7.387747398990733e-13
5.7835210386641895 9.771012035065671e-20 1.500034684083839e-11 1.4247299228808333e-11 7.530476120300603e-13
5.827062130521658 1.0124367139175893e-19 1.565982726743766e-11 1.4892327536007766e-11 7.674997314298976e-13
5.8489554468988025 1.0383789551840028e-19 1.6121432305406644e-11 1.534609582203308e-11 7.753364833735651e-13
5.870931020387893 1.065890561910012e-19 1.6610741797636596e-11 1.5827547784722903e-11 7.831940129136935e-13
5.892989160043636 1.095096084384956e-19 1.7129997570905966e-11 1.633892602767374e-11 7.91071543232227e-13
5.915130176081913 1.128381534124112e-19 1.771698062016569e-11 1.6917732816525448e-11 7.992478036402405e-13
5.95966208400165 1.2235516043007837e-19 1.935589954778282e-11 1.853783190637742e-11 8.180676414054069e-13
6.004529249263818 1.3613043201769786e-19 2.1697196417620728e-11 2.0857844375008928e-11 8.39352042611803e-13
6.027089341400364 1.4577177601972038e-19 2.332117926620241e-11 2.2469434742252144e-11 8.517445239502658e-13
6.049734195844842 1.5708607212764715e-19 2.5225710495898608e-11 2.4360818651684437e-11 8.648918442141703e-13
6.095279466722835 1.8986254865955324e-19 3.071866672236014e-11 2.982113811451106e-11 8.975286078490782e-13
6.141167624020661 2.3999644426639065e-19 3.9122373240039235e-11 3.8182089721194886e-11 9.402835188443536e-13
6.164241091010745 2.719538112810122e-19 4.449837983439872e-11 4.353107148918057e-11 9.673083452181558e-13
6.187401249150058 3.0791252494732484e-19 5.057141072565581e-11 4.9576389209679856e-11 9.950215159759478e-13
6.1990139391386085 3.253606720923523e-19 5.353737858295994e-11 5.2528262690595765e-11 1.0091158923641581e-12
6.204828454712694 3.3451454901744904e-19 5.509525828134554e-11 5.4079027430720405e-11 1.0162308506251263e-12
6.210648424152782 3.411111528666795e-19 5.623442999702656e-11 5.5212179530842725e-11 1.0222504661838366e-12
6.233982942956859 3.6315282604936508e-19 6.009308097549875e-11 5.905002252037139e-11 1.0430584551273545e-12
6.239830258556775 3.657548760402222e-19 6.058042746172736e-11 5.953461683849111e-11 1.045810623236256e-12
6.245683058788269 3.6562937088946553e-19 6.061644327412161e-11 5.956787748593452e-11 1.0485657881870848e-12
6.257405133728602 3.6421722050426466e-19 6.049565495363354e-11 5.944234571492831e-11 1.0533092387052398e-12
6.269149208991335 3.5886684402433955e-19 5.971884159453778e-11 5.866417183568561e-11 1.0546697588521655e-12
6.280915325867298 3.4664378901928927e-19 5.7793073964803296e-11 5.67412217562278e-11 1.0518522085754784e-12
6.304513850009849 3.170032124714588e-19 5.304991587109789e-11 5.200747121895657e-11 1.0424446521413224e-12
6.32820103803542 2.809641667538226e-19 4.719550479928985e-11 4.6166480669408025e-11 1.0290241298818164e-12
6.3519772230701035 2.480993237987658e-19 4.183154892282843e-11 4.081466035986015e-11 1.0168885629682938e-12
6.375842739491607 2.2039471606072876e-19 3.729994640743735e-11 3.629387122599956e-11 1.0060751814377728e-12
6.399797922933955 1.9834231974144465e-19 3.369388447261252e-11 3.2693876543037837e-11 1.0000079295746874e-12
6.42384311029221 1.7992994459228353e-19 3.0680879493964326e-11 2.9685989068956737e-11 9.948904250075897e-13
6.447978639727206 1.6649243164021156e-19 2.84962373488765e-11 2.7502774235232977e-11 9.934631136435284e-13
6.472204850670314 1.552331199746028e-19 2.6668959629293665e-11 2.567619466383366e-11 9.92764965460012e-13
6.496522083828205 1.4780526318579824e-19 2.5488263675124143e-11 2.4493216626687192e-11 9.950470484369483e-13
