Dust emission spectrum from A.P. Jones, M. Kohler, N. Ysard, M. Bocchio, and L. Verstraete (2017), A&A, 602A, 46J 
inside the DustPedia framework.

lambda    nu*dP/dnu     j_nu    j_nu(carb.) j_nu(sil)
 (um)   (erg s-1 H-1) (Jy cm2 sr-1 H-1)
0.9927057738263894 3.2606304215883375e-20 8.591946360995932e-13 8.591946175843257e-13 1.8515267388182254e-20
1.0001793341362166 3.315353189234362e-20 8.801913800789217e-13 8.801913578012787e-13 2.2277643003190372e-20
1.0077091589558085 3.370307367815945e-20 9.015174732916772e-13 9.015174465230082e-13 2.6768668941963696e-20
1.0114953028030835 3.397868976721011e-20 9.123047407339549e-13 9.123047114056378e-13 2.932831728239669e-20
1.0152956718711033 3.4254857717747705e-20 9.231752141686612e-13 9.231751820467167e-13 3.2121944630388083e-20
1.0229392996569957 3.480854601828627e-20 9.45159664982397e-13 9.451596264877978e-13 3.8494599180224736e-20
1.0267826658714554 3.508543853929533e-20 9.562575356788345e-13 9.562574935580836e-13 4.2120751053496915e-20
1.0306404723013447 3.536283674397454e-20 9.674392917527653e-13 9.674392456797265e-13 4.607303877769177e-20
1.03451277320114 3.564073321024099e-20 9.787052550521638e-13 9.78705204672867e-13 5.037929674421389e-20
1.0383996230291617 3.5919120785895563e-20 9.900557547620282e-13 9.900556996924306e-13 5.506959740132295e-20
1.0403485208654093 3.605849658007192e-20 9.95762810722556e-13 9.957627531537418e-13 5.756881446321602e-20
1.0423010764483396 3.6197992595097365e-20 1.0014911277100517e-12 1.0014910675336323e-12 6.017641928435337e-20
1.0462171883269815 3.647734204478236e-20 1.0130117186762163e-12 1.0130116529413895e-12 6.573482668695365e-20
1.0471985131304309 3.654725329334422e-20 1.0159052229194997e-12 1.0159051557201402e-12 6.719935948618565e-20
1.048180758391296 3.661719390336149e-20 1.0188040809113548e-12 1.0188040122162681e-12 6.869508658791841e-20
1.0501480137395462 3.6757162831021915e-20 1.0246178807062147e-12 1.0246178089235528e-12 7.17826617050841e-20
1.0521189612883777 3.6897248085982676e-20 1.0304531635350608e-12 1.0304530885323108e-12 7.500274999346048e-20
1.0531058218030118 3.696724196375035e-20 1.0333762996212043e-12 1.0333762229569265e-12 7.666427755046288e-20
1.0540936079674168 3.703696277800813e-20 1.0362963724390392e-12 1.0362962940776853e-12 7.836135365970691e-20
1.058054026499678 3.73161203066855e-20 1.0480301141957758e-12 1.0480300286798522e-12 8.551592344603663e-20
1.0590464539527713 3.7385977841686725e-20 1.0509769414882252e-12 1.0509768540883826e-12 8.739984254642667e-20
1.06003981227728 3.745586247609815e-20 1.0539291373449778e-12 1.0539290480215718e-12 8.932340582721376e-20
1.0620293250338977 3.759571272964249e-20 1.059849658699744e-12 1.0598495654070957e-12 9.329264847734233e-20
1.0660195594769086 3.787573505137513e-20 1.071755389772431e-12 1.0717552880296977e-12 1.0174273345523445e-19
1.070024785945596 3.8156182599349306e-20 1.0837477011924315e-12 1.08374759027109e-12 1.1092134158838472e-19
1.0740450607676866 3.8437051029879434e-20 1.095826997030511e-12 1.0958268761426319e-12 1.2088787928956656e-19
1.07808044048254 3.8718336333918886e-20 1.1079936919877884e-12 1.1079935602814885e-12 1.317062996741376e-19
1.0861967418109137 3.9281715443874074e-20 1.1325786591423108e-12 1.1325785029629979e-12 1.5617931310093422e-19
1.0902777775684922 3.9562830396358586e-20 1.144969577905713e-12 1.1449694079181056e-12 1.6998760699112705e-19
1.0943741465085532 3.984433297301707e-20 1.157448878744742e-12 1.1574486937888776e-12 1.8495586415410854e-19
1.1026131145906286 4.040849268185405e-20 1.1826745122375982e-12 1.1826742934905822e-12 2.187470162794247e-19
1.1109141095355224 4.0974181666893444e-20 1.2082594607838147e-12 1.2082592024104058e-12 2.583734084448221e-19
1.1192775983109025 4.154095346409785e-20 1.234194779750811e-12 1.2341944749701043e-12 3.0478070707567773e-19
1.1277040513999907 4.210678682024038e-20 1.260424032573618e-12 1.260423673516495e-12 3.5905712276733486e-19
1.1361939428280308 4.267408268254409e-20 1.2870223745498876e-12 1.2870219520966973e-12 4.22453190198939e-19
1.1447477501889525 4.3242853937341455e-20 1.3139946000534525e-12 1.3139941036494507e-12 4.964040014271977e-19
1.1533659546722406 4.38133174602796e-20 1.3413518082892795e-12 1.3413512257342383e-12 5.825550411983116e-19
1.1707974979042381 4.4961047298617204e-20 1.3972934961528359e-12 1.3972926968860814e-12 7.992667543643223e-19
1.1884924949847024 4.611585619038568e-20 1.4548430806757725e-12 1.454841989589056e-12 1.0910867166188819e-18
1.2064549276569216 4.728549665305391e-20 1.514288030595945e-12 1.5142865485173848e-12 1.4820785601523264e-18
1.2246888378427687 4.846261476969539e-20 1.5754406067231125e-12 1.5754386034316315e-12 2.0032914804995536e-18
1.2431983285522175 4.9646320039111045e-20 1.6383131350446655e-12 1.638310440398931e-12 2.6946457351604092e-18
1.2619875648066055 5.083841988175885e-20 1.7030074674812988e-12 1.7030038602748683e-12 3.607206430516185e-18
1.3004222497298317 5.3240876378905504e-20 1.837803271046569e-12 1.8377968981559478e-12 6.3728906215242784e-18
1.3400274889804893 5.567752120900046e-20 1.9804461247827337e-12 1.98043507259719e-12 1.1052185543648164e-17
1.3808389325824078 5.815736793813426e-20 2.131656386436364e-12 2.1316375624703182e-12 1.8823966045978668e-17
1.4228933163050095 6.070065493122392e-20 2.2926362204123457e-12 2.2926047181830645e-12 3.150222928192068e-17
1.466228494730424 6.334992507854404e-20 2.4655691875621915e-12 2.4655173605153464e-12 5.182704684499642e-17
1.5108834753276823 6.609917547889525e-20 2.6509189304720457e-12 2.6508350717091678e-12 8.385876287818333e-17
1.5568984535646726 6.894460382515138e-20 2.8492463505435345e-12 2.8491127595022293e-12 1.3359104130572302e-16
1.6043148490894465 7.189999389981482e-20 3.061878052842671e-12 3.0616681304972226e-12 2.099223454477726e-16
1.6531753430134553 7.497916168032604e-20 3.2902502639281966e-12 3.2899252712100777e-12 3.2499271811884554e-16
1.7035239163302658 7.81975796294745e-20 3.535989601523481e-12 3.5354937826382234e-12 4.958188852567563e-16
1.755405889504358 8.160723614062254e-20 3.8025563069524165e-12 3.8018105053021565e-12 7.458016502600532e-16
1.8088679632656115 8.520050852781512e-20 4.0908964535858225e-12 4.089790015722774e-12 1.106437863047876e-15
1.8639582606462262 8.896637167446923e-20 4.401812051664836e-12 4.400192460180727e-12 1.6195914841088145e-15
1.9207263702978936 9.290434708641669e-20 4.736646428169542e-12 4.734306403110702e-12 2.340025058839674e-15
1.979223391128241 9.701743003273274e-20 5.0969927294533365e-12 5.0936543326605074e-12 3.338396792828243e-15
2.039501978296691 1.0130415164882414e-19 5.484295006656293e-12 5.479590539805849e-12 4.704466850442971e-15
2.1016163906111602 1.0579127563486613e-19 5.901640269265438e-12 5.895089160045858e-12 6.55110921958214e-15
2.1656225393682647 1.1047994211371377e-19 6.350905256097444e-12 6.3418875086666345e-12 9.017747430811336e-15
2.231578038680979 1.153354644442834e-19 6.831945302459761e-12 6.819671118606643e-12 1.2274183853118369e-14
2.299542257339062 1.2033780873165462e-19 7.345357313862829e-12 7.328832806042186e-12 1.652450782064194e-14
2.369576372248914 1.2547628550172546e-19 7.892267512808446e-12 7.870256344779468e-12 2.2011168028977632e-14
2.4417434235010123 1.3074244877283196e-19 8.473953463685787e-12 8.444935715121194e-12 2.901774856459379e-14
2.5161083711144245 1.361495052034342e-19 9.093160213671264e-12 9.055287443725632e-12 3.7872769945633474e-14
2.5927381535095444 1.4173938262275207e-19 9.754805813315282e-12 9.705854365182977e-12 4.895144813230774e-14
2.6717017477616296 1.4754242466588735e-19 1.046343603801452e-11 1.0400762088199664e-11 6.267394981485458e-14
2.753070231689431 1.536185333629701e-19 1.1226137003713648e-11 1.1146632185336515e-11 7.950481837713447e-14
2.836916847834745 1.6018543687320767e-19 1.2062548417396895e-11 1.196259429582099e-11 9.995412157590707e-14
2.9233170693905177 1.6775747257517904e-19 1.301748931723801e-11 1.2892942114770414e-11 1.2454720246759304e-13
2.967498994190263 1.7244281428945312e-19 1.3583294459558232e-11 1.3445004405111452e-11 1.3829005444677766e-13
3.0123486681368425 1.774414485833909e-19 1.4188279844029335e-11 1.4034928386953632e-11 1.5335145707570804e-13
3.0578761833420214 1.8596802408239895e-19 1.5094808444780214e-11 1.4924922082310112e-11 1.6988636247010385e-13
3.1040917844459814 1.9599073676026855e-19 1.6148773116098085e-11 1.5960944914939556e-11 1.878282011585289e-13
3.127460860933648 2.0553816089924343e-19 1.7062936819017008e-11 1.686552255233941e-11 1.9741426667759652e-13
3.1510058709225794 2.1773013629517105e-19 1.8211142380303235e-11 1.8003750856470815e-11 2.0739152383241822e-13
3.162844764501044 2.288933322439274e-19 1.9216772626139312e-11 1.9004223544888188e-11 2.125490812511224e-13
3.1747281389236908 2.4152727890581175e-19 2.0353643475460898e-11 2.0135835965003095e-11 2.1780751045780563e-13
3.1986289994194426 2.7580513180914386e-19 2.341723671469171e-11 2.3188577547058198e-11 2.286591676335186e-13
3.2227097969389145 3.555905835137069e-19 3.0418716419673966e-11 3.017857352076629e-11 2.401428989076673e-13
3.2348180950136065 4.305590010486623e-19 3.697021444239394e-11 3.672394692523961e-11 2.4626751715432316e-13
3.240889293275058 4.866054992694502e-19 4.18611005347505e-11 4.161160241426819e-11 2.494981204823196e-13
3.2469718861334385 5.515792919019512e-19 4.753964281031412e-11 4.728680198043076e-11 2.5284082988336584e-13
3.2714166318528037 8.922098372336891e-19 7.747691110407981e-11 7.721026882492504e-11 2.6664227915479767e-13
3.2744851364798273 9.134546043698433e-19 7.939614673884317e-11 7.912788147463103e-11 2.6826526421216337e-13
3.2775565192852394 9.352651456872993e-19 8.136813699274381e-11 8.109824094897054e-11 2.6989604377325267e-13
3.283707930232385 9.141015161145887e-19 7.967615799007151e-11 7.940335264862263e-11 2.7280534144887104e-13
3.2898708863219004 8.471467921608037e-19 7.397874469832473e-11 7.370329822336188e-11 2.7544647496286026e-13
3.29141343181113 8.313201772467023e-19 7.263069362224464e-11 7.235458410900922e-11 2.7610951323543283e-13
3.292184975758714 8.235379910813482e-19 7.196764646547764e-11 7.16912050195262e-11 2.7644144595146184e-13
3.295272960557952 7.750886139083301e-19 6.779726664357331e-11 6.751953526855257e-11 2.777313750207365e-13
3.3076538914384823 6.058824842297467e-19 5.319586678071502e-11 5.291295765046364e-11 2.829091302513651e-13
3.310756385682612 5.71057072578097e-19 5.0185259377037305e-11 4.990104581174059e-11 2.842135652967243e-13
3.313861789986515 5.387734216038957e-19 4.739254027389607e-11 4.7107018271470043e-11 2.855220024260276e-13
3.3200813396944477 4.936631076557567e-19 4.350596735268476e-11 4.3217627997587154e-11 2.8833935509760124e-13
3.345076488085796 4.147220879059828e-19 3.6824143313461556e-11 3.65232404978162e-11 3.0090281564535914e-13
3.3482140837626964 4.178623488049829e-19 3.713777605223104e-11 3.6835170962524204e-11 3.0260508970683493e-13
3.3513546224236106 4.21030891848522e-19 3.74544807030206e-11 3.715016601881325e-11 3.0431468420736216e-13
3.3576445397418455 4.435215704327127e-19 3.9529279328148445e-11 3.9221389117363147e-11 3.078902107852995e-13
3.3702598118196083 5.250912819793716e-19 4.697509018932442e-11 4.665970072392325e-11 3.1538946540118855e-13
3.382922481734668 5.444181098992577e-19 4.88870737934017e-11 4.856440594354019e-11 3.2266784986150263e-13
3.389271646505754 5.543788331284289e-19 4.987494749969988e-11 4.954859258676463e-11 3.263549129352467e-13
3.395632727569191 5.653592112018756e-19 5.0958263027713636e-11 5.062810836515714e-11 3.301546625564967e-13
3.421196662673239 6.187372785090548e-19 5.618931730911824e-11 5.58434450313131e-11 3.458722778051449e-13
3.4276182099114902 6.0892982670853e-19 5.5402469299731713e-11 5.5053101154688784e-11 3.493681450429157e-13
3.4340518103208963 5.647842352905908e-19 5.148240681293544e-11 5.11297379161429e-11 3.52668896792534e-13
3.4469541582030403 5.013557510650436e-19 4.587234499376243e-11 4.551335233086455e-11 3.589926628978579e-13
3.472904465399547 4.833550735458379e-19 4.455829364687453e-11 4.4184716046475554e-11 3.735776003989771e-13
3.4990501388274233 4.564101709467916e-19 4.23911221090436e-11 4.200264544188278e-11 3.8847666716081143e-13
3.5253949054701885 3.621573112789869e-19 3.389022583369261e-11 3.348731650988711e-11 4.0290932380550577e-13
3.5519380250092896 2.7240578981000606e-19 2.5683319034453913e-11 2.5265937149264225e-11 4.173818851896955e-13
3.578680990867387 2.3723947851623963e-19 2.2536132127193763e-11 2.21028921358807e-11 4.332399913130714e-13
3.605625307711299 2.2355310149533844e-19 2.139590820186919e-11 2.0945986880630176e-11 4.4992132123900925e-13
3.660119384959845 2.1454369994769918e-19 2.0843970528516212e-11 2.0359095972804208e-11 4.848745557120005e-13
3.715437065384467 2.0826134437593186e-19 2.053941216120526e-11 2.001782540921697e-11 5.215867519882909e-13
3.8285932144167436 2.0671681541356664e-19 2.1007988168664643e-11 2.0407972128640828e-11 6.000160400238e-13
3.94519561050918 2.0777172393618462e-19 2.1758272800740287e-11 2.1073443764573446e-11 6.84829036166842e-13
4.06534921144712 2.0961428028997817e-19 2.261976853559973e-11 2.184401161200113e-11 7.757569235986098e-13
4.189162171576248 2.1171645575064233e-19 2.3542426394651904e-11 2.266962806725743e-11 8.727983273944767e-13
4.316745939156006 2.1386125588535352e-19 2.4505187793431574e-11 2.3529794967351355e-11 9.753928260802185e-13
4.448215356677963 2.1595809016206345e-19 2.5499092022368316e-11 2.441720395089533e-11 1.0818880714729837e-12
4.58368876423945 2.1799891055029555e-19 2.6523991332787458e-11 2.5331758098928318e-11 1.1922332338591356e-12
4.723288106065518 2.200306645220793e-19 2.7586530299539886e-11 2.6279579652987285e-11 1.3069506465526002e-12
4.867139040275056 2.2211901759865583e-19 2.86964999500011e-11 2.7273873691890163e-11 1.4226262581109417e-12
4.940699165968905 2.2333182176398767e-19 2.928926359507359e-11 2.7808120110752895e-11 1.481143484320694e-12
5.015371051989984 2.2445416832198753e-19 2.988134742745669e-11 2.8341448998654864e-11 1.5398984288018235e-12
5.091171501069577 2.259427725929601e-19 3.0534134461538437e-11 2.893390799158441e-11 1.6002264699540267e-12
5.129500256944802 2.266498383226515e-19 3.08602828699771e-11 2.922988597157618e-11 1.630396898400919e-12
5.168117569889187 2.273730305400986e-19 3.119182375464667e-11 2.9530926661813894e-11 1.6608970928327804e-12
5.20702561229733 2.2842260537451074e-19 3.1571718922306994e-11 2.9877316556376375e-11 1.6944023659306168e-12
5.246226572918644 2.2945846901641338e-19 3.195365688716456e-11 3.0225664335216274e-11 1.7279925519482848e-12
5.265937586045735 2.2997149478422467e-19 3.214542325982109e-11 3.040060926161595e-11 1.7448139982051409e-12
5.285722656980489 2.304813817871064e-19 3.2337739178185446e-11 3.057608911870948e-11 1.761650059475962e-12
5.305582063971359 2.30988232962356e-19 3.253061890698839e-11 3.075212040194215e-11 1.7784985050462493e-12
5.3255160863122235 2.3155642719576045e-19 3.2733163057374847e-11 3.0937655280033403e-11 1.7955077773414282e-12
5.365609099470188 2.331816097456904e-19 3.3211061663280415e-11 3.1380346058139196e-11 1.830715605141233e-12
5.406003951863644 2.3482199359452696e-19 3.369648207205739e-11 3.183048332868255e-11 1.865998743374844e-12
5.446702915881641 2.364801969452628e-19 3.418990541043183e-11 3.228856613105594e-11 1.9013392793759006e-12
5.487708281020852 2.3828071009712594e-19 3.470957815929032e-11 3.277268968221018e-11 1.9368884770801413e-12
5.529022354014368 2.411866172604758e-19 3.5397369170230037e-11 3.342342514499024e-11 1.9739440252397982e-12
5.570647458961463 2.441972929360111e-19 3.610904089132452e-11 3.4097972691417445e-11 2.011068199907076e-12
5.612585937458331 2.4732311006315743e-19 3.6846575917756574e-11 3.4798333134724334e-11 2.0482427830322365e-12
5.654840148729818 2.5075743746569526e-19 3.7639477745862717e-11 3.555382187444774e-11 2.085655871414975e-12
5.67608639626678 2.533333853264645e-19 3.8169006602057584e-11 3.606374021018783e-11 2.1052663918697592e-12
5.686739436050992 2.5465121512857013e-19 3.8439569521312146e-11 3.632449036013324e-11 2.1150791611789e-12
5.6974124697621304 2.5598965348038473e-19 3.871413028771926e-11 3.6589233737203915e-11 2.1248965505153452e-12
5.718818669136295 2.587305500362279e-19 3.9275658128669036e-11 3.713111410190727e-11 2.1445440267617517e-12
5.740305295436557 2.617872611115734e-19 3.988898019455741e-11 3.7724611147715444e-11 2.1643690468419495e-12
5.7835210386641895 2.7007441206858607e-19 4.146151738761086e-11 3.925619680357878e-11 2.2053205840320777e-12
5.827062130521658 2.7952946515509494e-19 4.323611619683256e-11 4.098935816760729e-11 2.246758029225261e-12
5.8489554468988025 2.8649455791770353e-19 4.4479932863423806e-11 4.2210685420694744e-11 2.2692474427290667e-12
5.870931020387893 2.938809800365458e-19 4.579814526057868e-11 4.350635819614257e-11 2.2917870644361303e-12
5.892989160043636 3.0172223083767524e-19 4.719678168003419e-11 4.4882407142624767e-11 2.3143745374094328e-12
5.915130176081913 3.1066405132655443e-19 4.87780844535633e-11 4.644025913355088e-11 2.337825320012417e-12
5.95966208400165 3.3627259360654946e-19 5.3196436665540963e-11 5.080452811161465e-11 2.391908553926313e-12
6.004529249263818 3.7337123008526336e-19 5.95099038163298e-11 5.7056769435642893e-11 2.453134380686915e-12
6.027089341400364 3.993520441089683e-19 6.389001262994619e-11 6.140117936323799e-11 2.4888332667081928e-12
6.049734195844842 4.29842082914646e-19 6.902631019857631e-11 6.649959206991296e-11 2.5267181286633706e-12
6.095279466722835 5.181942178539516e-19 8.384083953414619e-11 8.121990741377122e-11 2.620932120374941e-12
6.141167624020661 6.533315288510481e-19 1.0650107754440426e-10 1.0375651587714563e-10 2.74456166725861e-12
6.164241091010745 7.394548881679335e-19 1.2099313603698313e-10 1.181703320679281e-10 2.8228039690550472e-12
6.187401249150058 8.363334256499278e-19 1.373590151273405e-10 1.3445599546724255e-10 2.9030196600979754e-12
6.1990139391386085 8.833216714828434e-19 1.4534862628783442e-10 1.4240481384343125e-10 2.943812444403177e-12
6.204828454712694 9.07971125188226e-19 1.4954477705434522e-10 1.4658037416759356e-10 2.964402886751634e-12
6.210648424152782 9.25717091523197e-19 1.5261058614714472e-10 1.4962878355080613e-10 2.981802596338566e-12
6.233982942956859 9.849565774063452e-19 1.629866852678265e-10 1.5994482573982698e-10 3.0418595279995018e-12
6.239830258556775 9.919149967546546e-19 1.642920940922376e-10 1.6124235895699566e-10 3.0497351352419766e-12
6.245683058788269 9.915168719240138e-19 1.643801920948144e-10 1.6132257352713573e-10 3.0576185676786866e-12
6.257405133728602 9.875885781655763e-19 1.6403622480600063e-10 1.609650751012119e-10 3.071149704788682e-12
6.269149208991335 9.730391830436673e-19 1.6192293549838807e-10 1.588481093985851e-10 3.0748260998029104e-12
6.280915325867298 9.399608839700634e-19 1.5671196372793196e-10 1.5364562967850936e-10 3.0663340494226047e-12
6.304513850009849 8.598227597852983e-19 1.438897881035577e-10 1.4085142060772704e-10 3.0383674958306525e-12
6.32820103803542 7.624798480836175e-19 1.2807904205493344e-10 1.250803231201778e-10 2.99871893475564e-12
6.3519772230701035 6.737370782861262e-19 1.1359751054504798e-10 1.1063469392569663e-10 2.962816619351327e-12
6.375842739491607 5.989346989536409e-19 1.0136464508690708e-10 9.843387350252344e-11 2.930771584383606e-12
6.399797922933955 5.393960987473203e-19 9.163122554915084e-11 8.871868813545423e-11 2.9125374136965743e-12
6.42384311029221 4.8968538468144645e-19 8.349904353836691e-11 8.060197341804208e-11 2.8970701203248232e-12
6.447978639727206 4.53392575638562e-19 7.76010195798861e-11 7.470868456959536e-11 2.89233501029072e-12
6.472204850670314 4.2297868649846586e-19 7.266749206693005e-11 6.97777723071017e-11 2.8897197598283486e-12
6.496522083828205 4.0288988421759467e-19 6.947630537398196e-11 6.658053875567689e-11 2.8957666183050763e-12
6.520930681187647 3.8580191275095923e-19 6.677953538171817e-11 6.387644126682175e-11 2.9030941148964265e-12
