Dust emission spectrum from A.P. Jones, M. Kohler, N. Ysard, M. Bocchio, and L. Verstraete (2017), A&A, 602A, 46J 
inside the DustPedia framework.

lambda    nu*dP/dnu     j_nu    j_nu(carb.) j_nu(sil)
 (um)   (erg s-1 H-1) (Jy cm2 sr-1 H-1)
0.9927057738263894 1.773644155521429e-25 4.673653090775835e-18 4.673653090774273e-18 1.5619650368852676e-30
1.0001793341362166 1.8029465800287593e-25 4.7866334230609324e-18 4.786633423059051e-18 1.881952037555219e-30
1.0077091589558085 1.8322072182140442e-25 4.900938228021289e-18 4.900938228019024e-18 2.2646064083193117e-30
1.0114953028030835 1.8468182637689678e-25 4.958581595857749e-18 4.958581595855266e-18 2.4829999521777087e-30
1.0152956718711033 1.8614145497437518e-25 5.016549155672096e-18 5.0165491556693754e-18 2.721583292436398e-30
1.0229392996569957 1.8905428192473644e-25 5.133408378321824e-18 5.133408378318559e-18 3.2666231821909326e-30
1.0267826658714554 1.9050394770464366e-25 5.192206315594505e-18 5.192206315590927e-18 3.577203729053397e-30
1.0306404723013447 1.9195149657778404e-25 5.251315703108473e-18 5.2513157031045576e-18 3.916054647594981e-30
1.03451277320114 1.9339678885094164e-25 5.310733997589115e-18 5.310733997584829e-18 4.285624781756602e-30
1.0383996230291617 1.9483968560563802e-25 5.3704586239659155e-18 5.370458623961228e-18 4.688563472910841e-30
1.0403485208654093 1.9556019246994805e-25 5.40043499836152e-18 5.4004349983566156e-18 4.90343253511222e-30
1.0423010764483396 1.9628004872476918e-25 5.430486975981555e-18 5.430486975976427e-18 5.127735949206328e-30
1.0462171883269815 1.9771774091865643e-25 5.4908164168018376e-18 5.490816416796231e-18 5.606239810728898e-30
1.0471985131304309 1.9807673062727397e-25 5.505945510266645e-18 5.505945510260914e-18 5.732397846594789e-30
1.048180758391296 1.9843554274813567e-25 5.521093213292379e-18 5.521093213286518e-18 5.8612768691670876e-30
1.0501480137395462 1.991526257505053e-25 5.55144427962607e-18 5.551444279619943e-18 6.1274226818313954e-30
1.0521189612883777 1.998689730085099e-25 5.58186927787077e-18 5.581869277864366e-18 6.4051378677808e-30
1.0531058218030118 2.0022631546598874e-25 5.597094020861067e-18 5.597094020854518e-18 6.548492033873758e-30
1.0540936079674168 2.0058166570737805e-25 5.612286671458939e-18 5.612286671452244e-18 6.694950671331899e-30
1.058054026499678 2.0200104772176156e-25 5.673236643348899e-18 5.673236643341585e-18 7.312811211220497e-30
1.0590464539527713 2.0235537810669311e-25 5.688518761682087e-18 5.688518761674609e-18 7.47561242790259e-30
1.06003981227728 2.027094983050426e-25 5.703818642985422e-18 5.7038186429777795e-18 7.64188438249458e-30
1.0620293250338977 2.0341709989433574e-25 5.734471519320859e-18 5.734471519312872e-18 7.985123671288426e-30
1.0660195594769086 2.0482969032649826e-25 5.795988494878655e-18 5.79598849486994e-18 8.71644305558943e-30
1.070024785945596 2.0623868811640977e-25 5.8577847393704836e-18 5.8577847393609726e-18 9.51168350306558e-30
1.0740450607676866 2.0764396338051945e-25 5.919857396601679e-18 5.9198573965913034e-18 1.0376144744666112e-29
1.07808044048254 2.0904538727450015e-25 5.9822035854464314e-18 5.982203585435116e-18 1.131554036092932e-29
1.0861967418109137 2.1183369426658783e-25 6.107633505884203e-18 6.107633505870759e-18 1.3444243188240405e-29
1.0902777775684922 2.1321469316290437e-25 6.17054782957329e-18 6.170547829558643e-18 1.4647333403835655e-29
1.0943741465085532 2.1459123762842175e-25 6.233719298291861e-18 6.233719298275906e-18 1.5952986436604202e-29
1.1026131145906286 2.1733047387999752e-25 6.360821578128683e-18 6.360821578109775e-18 1.8905720724829663e-29
1.1109141095355224 2.200504360724189e-25 6.488915956775039e-18 6.4889159567526616e-18 2.2376473488185368e-29
1.1192775983109025 2.2274765114295617e-25 6.6179027036533524e-18 6.617902703626902e-18 2.645080891862565e-29
1.1277040513999907 2.2540959077794408e-25 6.747407884672292e-18 6.747407884641064e-18 3.1227494013985487e-29
1.1361939428280308 2.280491129005653e-25 6.877811832129655e-18 6.877811832092836e-18 3.682036631764041e-29
1.1447477501889525 2.3066533711391206e-25 7.009088896546212e-18 7.009088896502853e-18 4.336047578900528e-29
1.1533659546722406 2.3325882927040887e-25 7.141256827332393e-18 7.141256827281396e-18 5.099855727842296e-29
1.1707974979042381 2.3838599275168577e-25 7.408528432034813e-18 7.408528431964527e-18 7.02868846092763e-29
1.1884924949847024 2.43411181279194e-25 7.679030643628824e-18 7.67903064353243e-18 9.639405353721392e-29
1.2064549276569216 2.4837368759753786e-25 7.954009767594081e-18 7.954009767462526e-18 1.315573584662452e-28
1.2246888378427687 2.5321931140923405e-25 8.231747038338353e-18 8.231747038159671e-18 1.7868287147846582e-28
1.2431983285522175 2.5793671340608852e-25 8.511831395570503e-18 8.511831395328968e-18 2.415325762079368e-28
1.2619875648066055 2.6252412552932157e-25 8.794147166852599e-18 8.794147166527648e-18 3.249515437305432e-28
1.3004222497298317 2.7123271323772614e-25 9.362587573795613e-18 9.362587573215592e-18 5.800182240241624e-28
1.3400274889804893 2.793109631452871e-25 9.935074381166894e-18 9.935074380150293e-18 1.0166014212099948e-27
1.3808389325824078 2.8672888501682273e-25 1.05095447161926e-17 1.0509544714442167e-17 1.7504315445744428e-27
1.4228933163050095 2.93522534792363e-25 1.1086213081797567e-17 1.1086213078835209e-17 2.962355934038897e-27
1.466228494730424 2.998553440169256e-25 1.1670323145881522e-17 1.1670323140951563e-17 4.9299559395821135e-27
1.5108834753276823 3.056041764793361e-25 1.2256308657269986e-17 1.2256308649198494e-17 8.071490353644095e-27
1.5568984535646726 3.10669386664349e-25 1.283891076412391e-17 1.2838910751109668e-17 1.3014242941107354e-26
1.6043148490894465 3.1506018021057715e-25 1.341691144585629e-17 1.3416911425153507e-17 2.070278280550687e-26
1.6531753430134553 3.1878985849747997e-25 1.3989199032805254e-17 1.3989199000349337e-17 3.245591753328058e-26
1.7035239163302658 3.219026816333906e-25 1.4556007236433203e-17 1.4556007186277334e-17 5.0155870693415407e-26
1.755405889504358 3.2465459914621487e-25 1.5127548143368974e-17 1.512754806692693e-17 7.644204386959079e-26
1.8088679632656115 3.269823642150641e-25 1.5700035331547528e-17 1.570003521660453e-17 1.1494300027023692e-25
1.8639582606462262 3.2884312519962846e-25 1.6270255877213044e-17 1.627025570662517e-17 1.7058787201132993e-25
1.9207263702978936 3.302678917868215e-25 1.6838417996910443e-17 1.683841774693517e-17 2.4997527578044033e-25
1.979223391128241 3.3132889619534326e-25 1.7406985264355954e-17 1.7406984902528938e-17 3.61827010064373e-25
2.039501978296691 3.321125951002436e-25 1.797955382193924e-17 1.797955330442777e-17 5.175114753096292e-25
2.1016163906111602 3.328612118037074e-25 1.8568895401520483e-17 1.8568894669810707e-17 7.31709771104954e-25
2.1656225393682647 3.3371519473443127e-25 1.918351461568519e-17 1.9183513592596532e-17 1.0230886574398868e-24
2.231578038680979 3.3468459070545156e-25 1.982518411221528e-17 1.9825182697122102e-17 1.415093176739583e-24
2.299542257339062 3.358535072866518e-25 2.0500323565269977e-17 2.0500321628427245e-17 1.9368427302501378e-24
2.369576372248914 3.3740794224003276e-25 2.122244638065845e-17 2.122244375650063e-17 2.6241578171172074e-24
2.4417434235010123 3.3956755032676913e-25 2.200876338370036e-17 2.2008759863141403e-17 3.5205589548018185e-24
2.5161083711144245 3.427085185605369e-25 2.288883430905255e-17 2.288882963052102e-17 4.678531537957467e-24
2.5927381535095444 3.4744646519865e-25 2.3912004806429785e-17 2.3911998645710648e-17 6.160719148733989e-24
2.6717017477616296 3.5451644911856974e-25 2.5141651278785253e-17 2.5141643237965033e-17 8.040820221366988e-24
2.753070231689431 3.650251885695136e-25 2.6675315061141924e-17 2.6675304656297412e-17 1.0404844513733809e-23
2.836916847834745 3.8147975833399923e-25 2.872681902289953e-17 2.8726805670130285e-17 1.3352769233599778e-23
2.9233170693905177 4.094013673802624e-25 3.1768348941635876e-17 3.176833194447681e-17 1.69971590688301e-23
2.967498994190263 4.331127841817393e-25 3.411622865226852e-17 3.4116209560600906e-17 1.9091667611660458e-23
3.0123486681368425 4.608054304481291e-25 3.6846162230093717e-17 3.684614081337606e-17 2.141671764340879e-23
3.0578761833420214 5.227636372120339e-25 4.243211705102523e-17 4.243209305047284e-17 2.4000552386899817e-23
3.1040917844459814 6.0260335374086425e-25 4.9651861100272944e-17 4.9651834251620693e-17 2.684865225806117e-23
3.127460860933648 6.870594285509271e-25 5.703686151994538e-17 5.70368331316534e-17 2.838829196245437e-23
3.1510058709225794 7.995844110458496e-25 6.6877951772769e-17 6.687792176869985e-17 3.000406915427318e-23
3.162844764501044 9.04325955309861e-25 7.5922815630934e-17 7.592278478623012e-17 3.08447038584146e-23
3.1747281389236908 1.0261314199122172e-24 8.647268819687421e-17 8.647265649144585e-17 3.170542834272815e-23
3.1986289994194426 1.3658799443876462e-24 1.159700465751633e-16 1.1597001308194758e-16 3.349321568264787e-23
3.2227097969389145 2.1667423548548623e-24 1.8535226831811207e-16 1.8535223291635466e-16 3.540175742509681e-23
3.2348180950136065 2.92620780487258e-24 2.512606397396374e-16 2.5126060331433426e-16 3.64253031460305e-23
3.240889293275058 3.4940060141045135e-24 3.00578060143256e-16 3.005780231768614e-16 3.6966394604896686e-23
3.2469718861334385 4.150860727372864e-24 3.577553385919065e-16 3.577553010647786e-16 3.752712798718159e-23
3.2714166318528037 7.654636554766143e-24 6.647064077733562e-16 6.647063679159677e-16 3.985738818653134e-23
3.2744851364798273 7.873669248862661e-24 6.84367888743717e-16 6.843678486097694e-16 4.0133947612214175e-23
3.2775565192852394 8.098993154524965e-24 7.046130047072393e-16 7.046129642950585e-16 4.0412180788366325e-23
3.283707930232385 7.882305569652772e-24 6.870482247564143e-16 6.870481838445466e-16 4.091186787429859e-23
3.2898708863219004 7.195117304643157e-24 6.283276417738675e-16 6.283276004052141e-16 4.1368653480179234e-23
3.29141343181113 7.033061226142063e-24 6.144637519014805e-16 6.144637104179992e-16 4.148348117714135e-23
3.292184975758714 6.953432618945953e-24 6.076491744901073e-16 6.076491329491173e-16 4.1540989980789914e-23
3.295272960557952 6.450808123571772e-24 5.642543969457013e-16 5.642543551807722e-16 4.1764929116963964e-23
3.3076538914384823 4.709563937103275e-24 4.134949306413791e-16 4.1349488797490205e-16 4.266647704016805e-23
3.310756385682612 4.355176684017874e-24 3.8273875242193335e-16 3.827387095277001e-16 4.28942331907202e-23
3.313861789986515 4.02819942817599e-24 3.543356000427756e-16 3.5433555691983355e-16 4.312294217453183e-23
3.3200813396944477 3.5696509475122556e-24 3.1458927186279364e-16 3.1458922824822214e-16 4.361457139551233e-23
3.345076488085796 2.7516487739546095e-24 2.4432532473019884e-16 2.4432527891957086e-16 4.5810627946281797e-23
3.3482140837626964 2.7823241642756542e-24 2.472807899852305e-16 2.4728074387616707e-16 4.6109063457366116e-23
3.3513546224236106 2.8133387054776104e-24 2.5027175510267025e-16 2.5027170869351974e-16 4.6409150485187476e-23
3.3576445397418455 3.0399944406066033e-24 2.709423789276283e-16 2.709423318903584e-16 4.7037269902008795e-23
3.3702598118196083 3.875993823013523e-24 3.467495379526744e-16 3.4674948959414483e-16 4.835852967550511e-23
3.382922481734668 4.066404523824897e-24 3.6515063407210385e-16 3.6515058442379965e-16 4.9648304243828935e-23
3.389271646505754 4.165050493151448e-24 3.7471068927230106e-16 3.7471063896812917e-16 5.030417182547214e-23
3.395632727569191 4.271346075145812e-24 3.849948359680151e-16 3.849947849873062e-16 5.098070887253844e-23
3.421196662673239 4.781735228992754e-24 4.342431713788052e-16 4.3424311758416634e-16 5.379463885415902e-23
3.4276182099114902 4.6788851276654664e-24 4.257005951632195e-16 4.257005407328887e-16 5.443033073021051e-23
3.4340518103208963 4.228188398591717e-24 3.8541676912429073e-16 3.85416714089531e-16 5.50347597571957e-23
3.4469541582030403 3.586315814937423e-24 3.281356920109461e-16 3.2813563580869813e-16 5.620224788585447e-23
3.472904465399547 3.4064387654694286e-24 3.140240107306733e-16 3.140239518346225e-16 5.889605084019711e-23
3.4990501388274233 3.1313181415520767e-24 2.9083508245540925e-16 2.9083502077781307e-16 6.16775962307519e-23
3.5253949054701885 2.152181040113595e-24 2.0139839570504682e-16 2.013983312962981e-16 6.4408748618484e-23
3.5519380250092896 1.2319083343776385e-24 1.1614839315673545e-16 1.1614832597384596e-16 6.718288949653575e-23
3.578680990867387 8.670232311342469e-25 8.236129254874554e-17 8.236122230545229e-17 7.024329324211125e-23
3.605625307711299 7.194434159941261e-25 6.88567735454589e-17 6.885670005076181e-17 7.349469707304595e-23
3.660119384959845 6.118046109792612e-25 5.943981241849935e-17 5.943973198815557e-17 8.043034377857362e-23
3.715437065384467 5.355964228744473e-25 5.282226384569901e-17 5.282217595332777e-17 8.789237124515122e-23
3.8285932144167436 4.970115968887042e-25 5.050974554845898e-17 5.050964106709255e-17 1.0448136642637916e-22
3.94519561050918 4.8976286889008195e-25 5.128895264043063e-17 5.128882919620338e-17 1.2344422725301956e-22
4.06534921144712 4.954533479609324e-25 5.3465059897448506e-17 5.346491486196778e-17 1.4503548072631546e-22
4.189162171576248 5.087109124214975e-25 5.65675878588525e-17 5.656741825362295e-17 1.6960522954285876e-22
4.316745939156006 5.275584428572389e-25 6.045002710148379e-17 6.044982964954162e-17 1.9745194216768327e-22
4.448215356677963 5.513629560214265e-25 6.51017738801299e-17 6.510154519307657e-17 2.2868705333607344e-22
4.58368876423945 5.802567714851414e-25 7.060001143497573e-17 7.0599747610756e-17 2.6382421975224395e-22
4.723288106065518 6.149411201988662e-25 7.709876203685568e-17 7.709845843054729e-17 3.0360630838636177e-22
4.867139040275056 6.567702943915572e-25 8.48509457853985e-17 8.485059781188175e-17 3.4797351678338514e-22
4.940699165968905 6.820018985957432e-25 8.94423966210282e-17 8.944202441821422e-17 3.7220281399524906e-22
5.015371051989984 7.082226334312875e-25 9.428493453144537e-17 9.428453665686444e-17 3.9787458090671894e-22
5.091171501069577 7.401098395016731e-25 1.0001919112661112e-16 1.00018765643934e-16 4.254826771194065e-22
5.129500256944802 7.565148662374299e-25 1.0300586552457621e-16 1.0300542562591449e-16 4.398986617012874e-22
5.168117569889187 7.736281517131014e-25 1.0612900264621528e-16 1.0612854783022166e-16 4.54815993606466e-22
5.20702561229733 7.94509681304792e-25 1.0981415914628946e-16 1.098136882916205e-16 4.7085466894440225e-22
5.246226572918644 8.159475802128568e-25 1.1362626591119118e-16 1.1362577851799663e-16 4.873931945189545e-22
5.265937586045735 8.268808558147523e-25 1.155814337796427e-16 1.155809379249279e-16 4.958547147913477e-22
5.285722656980489 8.379601441876969e-25 1.1757017583956674e-16 1.1756967139252164e-16 5.044470451153204e-22
5.305582063971359 8.491878532077838e-25 1.1959313285732602e-16 1.1959261968511597e-16 5.131722100551858e-22
5.3255160863122235 8.612298855014401e-25 1.2174474538843227e-16 1.2174422331536617e-16 5.220730660368375e-22
5.365609099470188 8.910413096391459e-25 1.2690721155596075e-16 1.2690667094499554e-16 5.406109652405726e-22
5.406003951863644 9.22002703313321e-25 1.3230552678226601e-16 1.3230496703793354e-16 5.597443324879464e-22
5.446702915881641 9.541692588606346e-25 1.3795217158728116e-16 1.3795159209466755e-16 5.794926136452564e-22
5.487708281020852 9.888987636338599e-25 1.4404967533454164e-16 1.4404907540002835e-16 5.999345132121109e-22
5.529022354014368 1.0368117950842282e-24 1.5216602930754555e-16 1.5216540774909625e-16 6.215584493167129e-22
5.570647458961463 1.0875421386601945e-24 1.6081301755548014e-16 1.608123736474708e-16 6.439080093405436e-22
5.612585937458331 1.141290691980046e-24 1.7003123612481238e-16 1.700305691161927e-16 6.670086196399052e-22
5.654840148729818 1.200314304823066e-24 1.8017094137281248e-16 1.8017025039929204e-16 6.9097352036029665e-22
5.67608639626678 1.2403053286623742e-24 1.8687320748220333e-16 1.8687250384252134e-16 7.036396820201092e-22
5.686739436050992 1.2609147053130696e-24 1.9033491927715786e-16 1.9033420922090607e-16 7.100562517792346e-22
5.6974124697621304 1.281946301785242e-24 1.9387282053950894e-16 1.9387210401033125e-16 7.165291777099527e-22
5.718818669136295 1.3253165763951668e-24 2.011849035974535e-16 2.011841739512316e-16 7.296462218814626e-22
5.740305295436557 1.3730709289360198e-24 2.0921720505990685e-16 2.092164619682384e-16 7.430916684926311e-22
5.7835210386641895 1.4965927995502337e-24 2.297552289587775e-16 2.2975445747747365e-16 7.714813037860063e-22
5.827062130521658 1.6387385022379917e-24 2.534712691546599e-16 2.534704679799802e-16 8.011746796306133e-22
5.8489554468988025 1.7381843127979528e-24 2.6986314190204677e-16 2.6986232446196406e-16 8.174400826766577e-22
5.870931020387893 1.844860100277031e-24 2.8750132399662705e-16 2.875004899455414e-16 8.340510856723402e-22
5.892989160043636 1.959346417055101e-24 3.064899952004456e-16 3.064891441842629e-16 8.51016182641136e-22
5.915130176081913 2.089459110536125e-24 3.2807082931158113e-16 3.280699605511255e-16 8.687604556149486e-22
5.95966208400165 2.452667298870238e-24 3.8799819880252317e-16 3.879972896090865e-16 9.091934366607326e-22
6.004529249263818 2.975509406148856e-24 4.742526051727839e-16 4.74251649181057e-16 9.55991726812834e-22
6.027089341400364 3.338649089857297e-24 5.34131064719773e-16 5.341300811983419e-16 9.835214311034447e-22
6.049734195844842 3.767625318408966e-24 6.050251575580338e-16 6.050241443574803e-16 1.013200553400808e-21
6.095279466722835 5.006047987376544e-24 8.099497284011844e-16 8.099486409845503e-16 1.0874166343162218e-21
6.141167624020661 6.911012683557017e-24 1.1265800978811688e-15 1.12657891144314e-15 1.1864380291719518e-21
6.164241091010745 8.127424010315977e-24 1.3298478847665387e-15 1.3298466357861174e-15 1.248980421537722e-21
6.187401249150058 9.512848469745223e-24 1.562385834147899e-15 1.5623845185610289e-15 1.3155868699619859e-21
6.1990139391386085 1.0189399053531025e-23 1.6766430655359052e-15 1.6766417158057154e-15 1.3497301898348809e-21
6.204828454712694 1.0545755476484559e-23 1.736908375003216e-15 1.7369070077659317e-15 1.3672372840606026e-21
6.210648424152782 1.0806013600752024e-23 1.7814428237587107e-15 1.7814414415479176e-15 1.3822107932405436e-21
6.233982942956859 1.1690479560536984e-23 1.9344939223418457e-15 1.9344924865177435e-15 1.435824101609226e-21
6.239830258556775 1.1803728177861755e-23 1.955065934864705e-15 1.9550644908990536e-15 1.4439656513956255e-21
6.245683058788269 1.1813893465005617e-23 1.9585850046070836e-15 1.958583552450973e-15 1.4521561101729612e-21
6.257405133728602 1.1790395177110777e-23 1.9583579200729386e-15 1.9583564531597958e-15 1.4669131427874517e-21
6.269149208991335 1.1617498799342607e-23 1.9332618269845495e-15 1.9332603528845083e-15 1.474100040888417e-21
6.280915325867298 1.118275184931368e-23 1.864408436642906e-15 1.864406964778939e-15 1.4718639665162786e-21
6.304513850009849 1.0110225633140443e-23 1.6919280252537111e-15 1.6919265665391918e-15 1.458714519202615e-21
6.32820103803542 8.780467640550084e-24 1.4749162053561149e-15 1.474914769865177e-15 1.4354909377990983e-21
6.3519772230701035 7.561063529834475e-24 1.2748563523431017e-15 1.2748549377848945e-15 1.4145582074288031e-21
6.375842739491607 6.535258578952412e-24 1.1060373819783492e-15 1.1060359850638714e-15 1.396914477838001e-21
6.399797922933955 5.7135449328249005e-24 9.706023563031694e-16 9.706009672137147e-16 1.3890894548356418e-21
6.42384311029221 5.0305014541256855e-24 8.577794499852334e-16 8.577780662159646e-16 1.3837692689129007e-21
6.447978639727206 4.533235067393648e-24 7.758919799901566e-16 7.758905931102095e-16 1.3868799471904855e-21
6.472204850670314 4.119196246070847e-24 7.0767551672977e-16 7.076741247817985e-16 1.3919479716404325e-21
6.496522083828205 3.8507175824809096e-24 6.640366044159958e-16 6.640352002246556e-16 1.404191340344343e-21
