Dust emission spectrum from A.P. Jones, M. Kohler, N. Ysard, M. Bocchio, and L. Verstraete (2017), A&A, 602A, 46J 
inside the DustPedia framework.

lambda    nu*dP/dnu     j_nu    j_nu(carb.) j_nu(sil)
 (um)   (erg s-1 H-1) (Jy cm2 sr-1 H-1)
0.9927057738263894 4.7063599869539086e-27 1.2401525881534188e-19 1.2401525692409606e-19 1.891245834666829e-27
1.0001793341362166 4.783996464360658e-27 1.2701007132307151e-19 1.270100690454782e-19 2.2775933023519574e-27
1.0077091589558085 4.8615410898358706e-27 1.30040490712058e-19 1.3004048797276028e-19 2.7392976813757515e-27
1.0114953028030835 4.900269755114852e-27 1.3156891449006447e-19 1.3156891148738968e-19 3.0026748191374726e-27
1.0152956718711033 4.9389644464486e-27 1.3310607208446415e-19 1.3310606879416407e-19 3.2903001175294366e-27
1.0229392996569957 5.016199322030612e-27 1.362053234916705e-19 1.3620531954464924e-19 3.94702133759695e-27
1.0267826658714554 5.0546459753780804e-27 1.3776493911371417e-19 1.377649347926699e-19 4.321044292346508e-27
1.0306404723013447 5.093042244473928e-27 1.3933297313033907e-19 1.3933296840137672e-19 4.7289623373119e-27
1.03451277320114 5.13138457441499e-27 1.4090936398666762e-19 1.409093588129724e-19 5.173695261969224e-27
1.0383996230291617 5.1696694321704766e-27 1.4249404939631834e-19 1.4249404373791806e-19 5.658400279230306e-27
1.0403485208654093 5.188789211068173e-27 1.4328948289861877e-19 1.4328947698182053e-19 5.9167982934005484e-27
1.0423010764483396 5.207893307316088e-27 1.440869663596767e-19 1.4408696017318656e-19 6.1864900960612476e-27
1.0462171883269815 5.246052712754268e-27 1.4568805118226464e-19 1.456880444206123e-19 6.76165225736018e-27
1.0471985131304309 5.2555820843561385e-27 1.4608959108705146e-19 1.4608958417379362e-19 6.913257815188249e-27
1.048180758391296 5.265107156167622e-27 1.4649163645078553e-19 1.464916293826674e-19 7.068118040671143e-27
1.0501480137395462 5.284144185420596e-27 1.4729723949320363e-19 1.472972321053338e-19 7.387869844881304e-27
1.0521189612883777 5.3031633714989374e-27 1.481048521605158e-19 1.4810484443906042e-19 7.72145536498541e-27
1.0531058218030118 5.312651608476581e-27 1.4850900334213649e-19 1.4850899544851253e-19 7.89362399829287e-27
1.0540936079674168 5.322087616017789e-27 1.4891232100589058e-19 1.4891231293638623e-19 8.06950434459916e-27
1.058054026499678 5.3597824139201815e-27 1.5053047661867752e-19 1.5053046780737963e-19 8.811297913773689e-27
1.0590464539527713 5.369193542466743e-27 1.5093623153084919e-19 1.5093622252414333e-19 9.00670588038552e-27
1.06003981227728 5.378599537868149e-27 1.513424707463842e-19 1.5134246154012473e-19 9.20625956177749e-27
1.0620293250338977 5.397395920547518e-27 1.5215639786898848e-19 1.521563882508482e-19 9.618140284538439e-27
1.0660195594769086 5.4349247986904574e-27 1.5379001722615714e-19 1.5379000673071755e-19 1.049543958309652e-26
1.070024785945596 5.472365739155612e-27 1.5543126659623581e-19 1.5543125514720868e-19 1.1449027148465011e-26
1.0740450607676866 5.509715461378996e-27 1.570800773410546e-19 1.5708006485586612e-19 1.2485188424110504e-26
1.07808044048254 5.5469707140256855e-27 1.58736380297345e-19 1.5873636668664906e-19 1.3610695927630714e-26
1.0861967418109137 5.6211194413756975e-27 1.6206929478139398e-19 1.6206927862190345e-19 1.6159490502041453e-26
1.0902777775684922 5.6578575912030415e-27 1.6374143996144997e-19 1.6374142236235832e-19 1.759909168654168e-26
1.0943741465085532 5.694485972902373e-27 1.6542067372107963e-19 1.6542065456033922e-19 1.9160740444745144e-26
1.1026131145906286 5.767401152636039e-27 1.6880011830125575e-19 1.6880009561120078e-19 2.2690054951642077e-26
1.1109141095355224 5.839840755659149e-27 1.722070473514118e-19 1.722070205165559e-19 2.6834855900693204e-26
1.1192775983109025 5.9117142823866184e-27 1.7563888881379887e-19 1.7563885711772744e-19 3.16960714831778e-26
1.1277040513999907 5.982691680495538e-27 1.7908581829735e-19 1.7908578090728583e-19 3.739006416320414e-26
1.1361939428280308 6.053114627315139e-27 1.8255797128725403e-19 1.8255792723645694e-19 4.405079710436549e-26
1.1447477501889525 6.122961335372348e-27 1.8605474427458603e-19 1.8605469244228506e-19 5.183230098483844e-26
1.1533659546722406 6.19224796951132e-27 1.895766742340315e-19 1.8957661332250385e-19 6.091152755257761e-26
1.1707974979042381 6.329366030487956e-27 1.9670320245061359e-19 1.9670311864562364e-19 8.380499001608884e-26
1.1884924949847024 6.463972151079233e-27 2.0392259700989992e-19 2.0392248227930824e-19 1.1473059165061729e-25
1.2064549276569216 6.597116186649841e-27 2.1126846041595753e-19 2.1126830411635121e-19 1.5629960634428081e-25
1.2246888378427687 6.727383407686984e-27 2.1869626820245135e-19 2.186960563074089e-19 2.1189504238306676e-25
1.2431983285522175 6.854486805110467e-27 2.261959347229777e-19 2.2619564883841857e-19 2.858845592251872e-25
1.2619875648066055 6.978400796659225e-27 2.337655004901569e-19 2.337651166119169e-19 3.838782399912464e-25
1.3004222497298317 7.214718642175046e-27 2.4904236034558177e-19 2.490416778711158e-19 6.8247446602675725e-25
1.3400274889804893 7.435604256774648e-27 2.6448400208892325e-19 2.644828108428588e-19 1.191246064507601e-24
1.3808389325824078 7.640466399240503e-27 2.8004790403545835e-19 2.800458616397878e-19 2.0423956705508243e-24
1.4228933163050095 7.830494081374348e-27 2.9575421179597066e-19 2.9575077055659195e-19 3.44123937866778e-24
1.466228494730424 8.01029120192775e-27 3.117592822151998e-19 3.1175358132589818e-19 5.70088930160935e-24
1.5108834753276823 8.17695036113322e-27 3.2793801660626367e-19 3.2792872664709787e-19 9.28995916587621e-24
1.5568984535646726 8.328243912757192e-27 3.441780394451014e-19 3.441631327465103e-19 1.4906698591074813e-23
1.6043148490894465 8.464903078269294e-27 3.6047987696505033e-19 3.604562806025686e-19 2.3596362481654572e-23
1.6531753430134553 8.587868595332175e-27 3.768545323678457e-19 3.768177277189125e-19 3.680464893316916e-23
1.7035239163302658 8.699002955259024e-27 3.9335723866604074e-19 3.933006592945157e-19 5.657937152501046e-23
1.755405889504358 8.805922436820852e-27 4.1031920065233917e-19 4.1023343195574366e-19 8.576869659544648e-23
1.8088679632656115 8.907945909288512e-27 4.277143993471094e-19 4.2758614595900487e-19 1.2825338810454713e-22
1.8639582606462262 9.005083270067695e-27 4.455468208759662e-19 4.453575643357641e-19 1.892565402021219e-22
1.9207263702978936 9.099511660976807e-27 4.639305991458242e-19 4.636548977238895e-19 2.7570142193464124e-22
1.979223391128241 9.194734361011372e-27 4.83062622577384e-19 4.826659784605432e-19 3.9664411684087903e-22
2.039501978296691 9.29486157117713e-27 5.031952005193057e-19 5.026314431037899e-19 5.637574155158541e-22
2.1016163906111602 9.408461398001142e-27 5.24857596480037e-19 5.240656560353906e-19 7.919404446463242e-22
2.1656225393682647 9.541691616026701e-27 5.485011874274223e-19 5.474012909581803e-19 1.0998964692419018e-21
2.231578038680979 9.697481904473772e-27 5.744344661217683e-19 5.729236699662298e-19 1.510796155538384e-21
2.299542257339062 9.881104175858536e-27 6.03137464377735e-19 6.01084467805065e-19 2.052996572670268e-21
2.369576372248914 1.0100844174925228e-26 6.353277355553101e-19 6.325669028439737e-19 2.760832711336583e-21
2.4417434235010123 1.036620933178794e-26 6.718764739141854e-19 6.6820117162884845e-19 3.675302285337267e-21
2.5161083711144245 1.069122611559056e-26 7.1404616421036445e-19 7.092012259091575e-19 4.844938301206875e-21
2.5927381535095444 1.1096517944206648e-26 7.636859689011296e-19 7.573594756388914e-19 6.326493262238469e-21
2.6717017477616296 1.1605903955145294e-26 8.230692559987433e-19 8.14884043171901e-19 8.185212826842286e-21
2.753070231689431 1.2252986690952542e-26 8.95423906777583e-19 8.849285749850641e-19 1.0495331792518912e-20
2.836916847834745 1.3108162632546754e-26 9.870925191742852e-19 9.737516904571685e-19 1.334082871711625e-20
2.9233170693905177 1.431984724497304e-26 1.1111782722667058e-18 1.0943656797557146e-18 1.6812592510991387e-20
2.967498994190263 1.5199296793133792e-26 1.1972463147858906e-18 1.1784640592504283e-18 1.8782255535462376e-20
3.0123486681368425 1.6199133327975997e-26 1.2952883259406581e-18 1.2743336069542958e-18 2.0954718986362198e-20
3.0578761833420214 1.810854290239251e-26 1.469849387680676e-18 1.446495489418356e-18 2.3353898262319808e-20
3.1040917844459814 2.0497718053385325e-26 1.6889216486121736e-18 1.6629435531320827e-18 2.597809548009097e-20
3.127460860933648 2.2855596709984152e-26 1.8973780874421945e-18 1.869989624279873e-18 2.7388463162321194e-20
3.1510058709225794 2.594482984409352e-26 2.170048659148369e-18 2.1411861871502002e-18 2.886247199816979e-20
3.162844764501044 2.875124213449757e-26 2.4138146681744338e-18 2.384187889164385e-18 2.962677901004964e-20
3.1747281389236908 3.1998815373116535e-26 2.6965586773140258e-18 2.666150994826771e-18 3.040768248725418e-20
3.1986289994194426 4.0984659765418934e-26 3.4798028343506606e-18 3.447778575702029e-18 3.202425864863236e-20
3.2227097969389145 6.192911572466455e-26 5.297677432105366e-18 5.263936090103643e-18 3.3741342001722837e-20
3.2348180950136065 8.170682903845005e-26 7.015807319327445e-18 6.98114858048814e-18 3.465873883930578e-20
3.240889293275058 9.647176037860474e-26 8.299154173218507e-18 8.264011504286214e-18 3.514266893229459e-20
3.2469718861334385 1.1354763384208694e-25 9.786469568492614e-18 9.75082614586837e-18 3.564342262424511e-20
3.2714166318528037 2.0449949005051805e-25 1.7758141807310918e-17 1.772042564245169e-17 3.7716164859225006e-20
3.2744851364798273 2.1019760789536044e-25 1.8270070609723257e-17 1.8232109235949527e-17 3.796137377373392e-20
3.2775565192852394 2.160582745609805e-25 1.8797085900142776e-17 1.8758878002715226e-17 3.8207897427551804e-20
3.283707930232385 2.104950128229243e-25 1.8347452227285267e-17 1.8308801571172498e-17 3.8650656112764503e-20
3.2898708863219004 1.9274299021416834e-25 1.6831657272850856e-17 1.6792601931346502e-17 3.905534150434964e-20
3.29141343181113 1.8855673710305912e-25 1.6473805132818626e-17 1.6434648125621602e-17 3.915700719702959e-20
3.292184975758714 1.8649977973423938e-25 1.629791261503246e-17 1.6258704700697653e-17 3.9207914334805937e-20
3.295272960557952 1.735110582362266e-25 1.51770717176879e-17 1.5137665454669615e-17 3.9406263018280074e-20
3.3076538914384823 1.285074733570195e-25 1.1282825648470311e-17 1.1242621807219097e-17 4.0203841251212034e-20
3.310756385682612 1.1934701618069801e-25 1.0488375419051816e-17 1.0447970351503765e-17 4.04050675480497e-20
3.313861789986515 1.1089474034354986e-25 9.754719214339456e-18 9.714112185314184e-18 4.0607029025271435e-20
3.3200813396944477 9.905937423602929e-26 8.729989814218227e-18 8.68894918661621e-18 4.104062760202019e-20
3.345076488085796 7.808817740910809e-26 6.93363174968363e-18 6.8906608123984794e-18 4.297093728514954e-20
3.3482140837626964 7.891283946200284e-26 7.013427670539563e-18 6.970195313532412e-18 4.3232357007150705e-20
3.3513546224236106 7.974635896016729e-26 7.09415513359611e-18 7.050660078220896e-18 4.3495055375214616e-20
3.3576445397418455 8.56821928031495e-26 7.636506448738342e-18 7.592462455635393e-18 4.4043993102950537e-20
3.3702598118196083 1.0746491016252586e-25 9.613897659932236e-18 9.568702021670277e-18 4.519563826195792e-20
3.382922481734668 1.1252652611867238e-25 1.0104536359190245e-17 1.005821785795117e-17 4.631850123907248e-20
3.389271646505754 1.1514685550943089e-25 1.0359239981945644e-17 1.0312351644276855e-17 4.688833766879027e-20
3.395632727569191 1.1797084837026148e-25 1.0633221148151981e-17 1.0585745527160258e-17 4.747562099172474e-20
3.421196662673239 1.3150123817059022e-25 1.1942006817358899e-17 1.1892096146417644e-17 4.991067094125392e-20
3.4276182099114902 1.2889465365961035e-25 1.1727266064262379e-17 1.1676808166212483e-17 5.0457898049902076e-20
3.4340518103208963 1.1726021503198635e-25 1.0688751059319062e-17 1.0637773732842962e-17 5.0977326476095393e-20
3.4469541582030403 1.0071336950249698e-25 9.214930558766922e-18 9.16295248034632e-18 5.197807842059798e-20
3.472904465399547 9.627779372623325e-26 8.875409485320912e-18 8.82113135265863e-18 5.427813266228173e-20
3.4990501388274233 8.93805140767273e-26 8.301612294344231e-18 8.244971647445372e-18 5.664064689886083e-20
3.5253949054701885 6.423734880727711e-26 6.011250333033442e-18 5.952300554040426e-18 5.894977899301744e-20
3.5519380250092896 4.0601509211021393e-26 3.82804460607936e-18 3.766762520341294e-18 6.128208573806597e-20
3.578680990867387 3.139322317217058e-26 2.982142052120925e-18 2.9183016146622805e-18 6.384043745864432e-20
3.605625307711299 2.7835510925451307e-26 2.664092032404667e-18 2.5975499573478163e-18 6.654207505684967e-20
3.660119384959845 2.5606551393105233e-26 2.487801798444491e-18 2.4155519439593167e-18 7.224985448517305e-20
3.715437065384467 2.4213514497221804e-26 2.3880156714633813e-18 2.3097018580536228e-18 7.831381340975999e-20
3.8285932144167436 2.4461535273852398e-26 2.485949885558937e-18 2.3944376498687708e-18 9.15122356901665e-20
3.94519561050918 2.562764343946047e-26 2.6837783632538437e-18 2.577620207353124e-18 1.0615815590072034e-19
4.06534921144712 2.7238315984163393e-26 2.9393245632356836e-18 2.81702299267817e-18 1.2230157055751313e-19
4.189162171576248 2.9158182956114166e-26 3.242328866749078e-18 3.1022873736608045e-18 1.40041493088274e-19
4.316745939156006 3.1338904390368376e-26 3.5909530884737e-18 3.431559138358708e-18 1.5939395011499024e-19
4.448215356677963 3.3765545846109337e-26 3.986841891726847e-18 3.806653801634365e-18 1.8018809009248173e-19
4.58368876423945 3.6445759251506373e-26 4.434366208820042e-18 4.231835706213687e-18 2.0253050260635449e-19
4.723288106065518 3.940289663375176e-26 4.9401714267310915e-18 4.713529713289434e-18 2.2664171344165873e-19
4.867139040275056 4.267229385060593e-26 5.513015011451931e-18 5.2609633400508796e-18 2.520516714010504e-19
4.940699165968905 4.446991823747106e-26 5.83208943096835e-18 5.566747993590788e-18 2.653414373775613e-19
5.015371051989984 4.6325616464996897e-26 6.1672806111397015e-18 5.8882808218336666e-18 2.789997893060338e-19
5.091171501069577 4.8367749897023174e-26 6.536466566329916e-18 6.2431680822579434e-18 2.932984840719731e-19
5.129500256944802 4.941310903459441e-26 6.7280106333974185e-18 6.427426018545945e-18 3.0058461485147505e-19
5.168117569889187 5.0485986025737337e-26 6.925843291324901e-18 6.617823401041529e-18 3.0801989028337167e-19
5.20702561229733 5.167245898402804e-26 7.14197418593236e-18 6.825907915000246e-18 3.1606627093211237e-19
5.246226572918644 5.288190492260706e-26 7.364165954213586e-18 7.039935860084978e-18 3.2423009412860934e-19
5.265937586045735 5.349540317043186e-26 7.477589250710337e-18 7.149233440778796e-18 3.2835580993154186e-19
5.285722656980489 5.411483974043788e-26 7.59259407257459e-18 7.260083476846521e-18 3.325105957280697e-19
5.305582063971359 5.474028239945569e-26 7.709203376986836e-18 7.372509029090246e-18 3.366943478965923e-19
5.3255160863122235 5.539001680022048e-26 7.830015662400687e-18 7.489081835676541e-18 3.40933826724144e-19
5.365609099470188 5.685219588307608e-26 8.097215664755623e-18 7.747506906024177e-18 3.4970875873144517e-19
5.406003951863644 5.835301812348195e-26 8.373540310042657e-18 8.014928417630606e-18 3.5861189241205037e-19
5.446702915881641 5.989394657250687e-26 8.65936511565684e-18 8.291722523980637e-18 3.67642591676201e-19
5.487708281020852 6.151216050609205e-26 8.960276901821964e-18 8.583444968143074e-18 3.7683193367888797e-19
5.529022354014368 6.349781318010535e-26 9.319155267272038e-18 8.932727282655307e-18 3.8642798461673166e-19
5.570647458961463 6.556556405279711e-26 9.695069118008547e-18 9.298903476230339e-18 3.961656417782032e-19
5.612585937458331 6.772059884491549e-26 1.0089118586200513e-17 9.683074127287985e-18 4.0604445891252737e-19
5.654840148729818 7.002434852253455e-26 1.0510874311526837e-17 1.0094770127989598e-17 4.1610418353724157e-19
5.67608639626678 7.146394698133453e-26 1.0767265674930769e-17 1.0345903361677596e-17 4.2136231325317326e-19
5.686739436050992 7.220050386960617e-26 1.0898657155703148e-17 1.0474650834775708e-17 4.240063209274375e-19
5.6974124697621304 7.294856499417521e-26 1.1032243729737524e-17 1.0605583442425345e-17 4.266602873121792e-19
5.718818669136295 7.448023532858556e-26 1.130620353761372e-17 1.0874205451857565e-17 4.319980857561537e-19
5.740305295436557 7.613162843136294e-26 1.1600308608537504e-17 1.1162898668233823e-17 4.374099403036795e-19
5.7835210386641895 8.01965840510104e-26 1.2311688614223669e-17 1.1863066342266077e-17 4.486222719575942e-19
5.827062130521658 8.476036723339085e-26 1.3110278319159484e-17 1.2650185119389743e-17 4.600931997697368e-19
5.8489554468988025 8.781422682657362e-26 1.3633665302715686e-17 1.3167405513132575e-17 4.66259789583109e-19
5.870931020387893 9.105735474506909e-26 1.4190295537806235e-17 1.3717814982725983e-17 4.724805550802476e-19
5.892989160043636 9.450459067861526e-26 1.4782843549964407e-17 1.430408792442372e-17 4.787556255406887e-19
5.915130176081913 9.837004000227462e-26 1.544530852038499e-17 1.496005456638011e-17 4.85253954004877e-19
5.95966208400165 1.0887585062289123e-25 1.7223548401461905e-17 1.672366050132549e-17 4.998879001364136e-19
6.004529249263818 1.2364897621663522e-25 1.9707835228652343e-17 1.9191565854862437e-17 5.162693737899008e-19
6.027089341400364 1.3376242776762312e-25 2.1399873433861263e-17 2.0874226410692563e-17 5.256470231687022e-19
6.049734195844842 1.4561541551254908e-25 2.3383691919387257e-17 2.2848126418508152e-17 5.35565500879102e-19
6.095279466722835 1.794873761936005e-25 2.904002358068348e-17 2.84803858216538e-17 5.596377590296879e-19
6.141167624020661 2.310763281688995e-25 3.7668284566445496e-17 3.7077782808886156e-17 5.905017575593319e-19
6.164241091010745 2.6394118014240358e-25 4.31873149068684e-17 4.257762740582475e-17 6.096875010436485e-19
6.187401249150058 3.0118906664362347e-25 4.946715304262887e-17 4.883771093255102e-17 6.294421100778374e-19
6.1990139391386085 3.193852093540748e-25 5.255412941283057e-17 5.1914624010581867e-17 6.395054022487046e-19
6.204828454712694 3.2895299332847744e-25 5.417925822086986e-17 5.353466428371132e-17 6.445939371585477e-19
6.210648424152782 3.3597198776296236e-25 5.538720463415168e-17 5.473823061949608e-17 6.489740146556138e-19
6.233982942956859 3.598574574889747e-25 5.954777653191793e-17 5.888333998732378e-17 6.644365445941242e-19
6.239830258556775 3.6294840450571224e-25 6.011558814896018e-17 5.944886299486815e-17 6.667251540920144e-19
6.245683058788269 3.6330118561060656e-25 6.023046139705226e-17 5.956144182883232e-17 6.690195682199361e-19
6.257405133728602 3.6283967389567026e-25 6.026684758367807e-17 5.959372756725432e-17 6.731200164237222e-19
6.269149208991335 3.584050161473717e-25 5.964198906194017e-17 5.896695647861532e-17 6.750325833248364e-19
6.280915325867298 3.470064062791362e-25 5.785353016446156e-17 5.717929725810792e-17 6.742329063536369e-19
6.304513850009849 3.1879946527716746e-25 5.335051553847395e-17 5.2680343273741825e-17 6.701722647321192e-19
6.32820103803542 2.838144594685471e-25 4.7674288286349355e-17 4.701079548427336e-17 6.63492802076003e-19
6.3519772230701035 2.5178658123937905e-25 4.24532502949095e-17 4.1795607159832563e-17 6.576431350769413e-19
6.375842739491607 2.2483779595590417e-25 3.805190019714771e-17 3.7399262130953654e-17 6.526380661940505e-19
6.399797922933955 2.0343827454776011e-25 3.455957220252046e-17 3.3908801293864795e-17 6.507709086556727e-19
6.42384311029221 1.8567122041079e-25 3.165985712844509e-17 3.101032913149039e-17 6.495279969547027e-19
6.447978639727206 1.7290210238401762e-25 2.9593293215285823e-17 2.8942543119006617e-17 6.507500962792069e-19
6.472204850670314 1.6232034231029169e-25 2.788654030012756e-17 2.7234069358287056e-17 6.524709418405049e-19
6.496522083828205 1.5565037565393696e-25 2.6841113301984644e-17 2.618490754974134e-17 6.5620575224330125e-19
6.520930681187647 1.5010294714312395e-25 2.5981740210072346e-17 2.5321475369533365e-17 6.602648405389654e-19
6.57002334288761 1.4495544975405217e-25 2.527964048901886e-17 2.4608406317984478e-17 6.712341710343959e-19
