Dust emission spectrum from A.P. Jones, M. Kohler, N. Ysard, M. Bocchio, and L. Verstraete (2017), A&A, 602A, 46J 
inside the DustPedia framework.

lambda    nu*dP/dnu     j_nu    j_nu(carb.) j_nu(sil)
 (um)   (erg s-1 H-1) (Jy cm2 sr-1 H-1)
0.9927057738263894 1.0643162448887466e-26 2.8045337572377103e-19 2.8045336550940248e-19 1.0214368648630953e-26
1.0001793341362166 1.08193921651866e-26 2.8724347536830333e-19 2.8724346306848983e-19 1.229981357710692e-26
1.0077091589558085 1.0995484521686333e-26 2.9411624346986696e-19 2.9411622867815824e-19 1.4791708712265338e-26
1.0114953028030835 1.1083459149125275e-26 2.9758334988054307e-19 2.975833336674802e-19 1.621306282287152e-26
1.0152956718711033 1.1171375465000609e-26 3.0107078600175147e-19 3.0107076823657807e-19 1.7765173415991472e-26
1.0229392996569957 1.1346915349803664e-26 3.081038405042825e-19 3.081038191956094e-19 2.1308673129522245e-26
1.0267826658714554 1.1434327687901476e-26 3.1164387484371276e-19 3.1164385151710783e-19 2.3326604875824548e-26
1.0306404723013447 1.1521645848626236e-26 3.152035844952513e-19 3.152035589679958e-19 2.5527255444637056e-26
1.03451277320114 1.1608862114025922e-26 3.1878284571621803e-19 3.187828177898697e-19 2.792634831975194e-26
1.0383996230291617 1.1695968817941721e-26 3.2238153335499913e-19 3.223815028141153e-19 3.0540883929903244e-26
1.0403485208654093 1.1739478703262412e-26 3.241881225973968e-19 3.241880906627685e-19 3.193462830210486e-26
1.0423010764483396 1.178295834775994e-26 3.2599952089765684e-19 3.2599948750842015e-19 3.3389236688775763e-26
1.0462171883269815 1.1869823146136998e-26 3.2963668051496343e-19 3.296366440237046e-19 3.6491258859358254e-26
1.0471985131304309 1.1891518976217593e-26 3.305489509545675e-19 3.3054891364569126e-19 3.7308876314632525e-26
1.048180758391296 1.1913206424896571e-26 3.3146240955699754e-19 3.3146237141296636e-19 3.8144031096762525e-26
1.0501480137395462 1.195655571269741e-26 3.3329288310985806e-19 3.332928432414663e-19 3.986839167991834e-26
1.0521189612883777 1.1999870081168023e-26 3.351280848461681e-19 3.3512804317887967e-19 4.1667288538330523e-26
1.0531058218030118 1.2021481169343378e-26 3.360465392285316e-19 3.360464966328301e-19 4.259570149345291e-26
1.0540936079674168 1.2042976006092264e-26 3.369631690181208e-19 3.369631254740079e-19 4.3544112844430595e-26
1.058054026499678 1.2128857870800065e-26 3.4064120800686694e-19 3.406411604629193e-19 4.7543947610238494e-26
1.0590464539527713 1.2150303398350754e-26 3.415635872311997e-19 3.4156353863363914e-19 4.859756066046996e-26
1.06003981227728 1.2171738724111137e-26 3.4248711003990326e-19 3.424870603663966e-19 4.967350660455791e-26
1.0620293250338977 1.2214578319619727e-26 3.443375779654588e-19 3.4433752607125247e-19 5.189420635870572e-26
1.0660195594769086 1.2300130146565604e-26 3.480521437168896e-19 3.480520870928994e-19 5.662399011514907e-26
1.070024785945596 1.2385506212172801e-26 3.5178476910255066e-19 3.5178470733787657e-19 6.176467407449156e-26
1.0740450607676866 1.2470699445013574e-26 3.555353170324147e-19 3.555352496823414e-19 6.735007332122766e-26
1.07808044048254 1.2555702843187361e-26 3.593036495356222e-19 3.593035761190025e-19 7.341661967378017e-26
1.0861967418109137 1.2724964720136647e-26 3.668888519127316e-19 3.668887647596117e-19 8.71531199467622e-26
1.0902777775684922 1.2808873538397161e-26 3.7069568536370695e-19 3.706955904528965e-19 9.491081044122006e-26
1.0943741465085532 1.2892559363171278e-26 3.7451946777872415e-19 3.745193644532103e-19 1.0332551371336249e-25
1.1026131145906286 1.3059235742903966e-26 3.822173072387445e-19 3.8221718489840387e-19 1.2234034059469066e-25
1.1109141095355224 1.3224942079399877e-26 3.8998122075159864e-19 3.8998107608404226e-19 1.4466755637652607e-25
1.1192775983109025 1.338947710954668e-26 3.9780557195148555e-19 3.9780540110187753e-19 1.708496080246676e-25
1.1277040513999907 1.355209898422367e-26 4.0566836231068438e-19 4.0566816079892484e-19 2.0151175953548503e-25
1.1361939428280308 1.3713581831870916e-26 4.135926432007018e-19 4.135924058270012e-19 2.3737370066733107e-25
1.1447477501889525 1.3873879706585847e-26 4.21577240083654e-19 4.2157696082090695e-19 2.7926274707995633e-25
1.1533659546722406 1.4033031461790184e-26 4.296235304281041e-19 4.296232022989873e-19 3.281291167555871e-25
1.1707974979042381 1.43484104024274e-26 4.45918005474488e-19 4.459175541613234e-19 4.513131645223188e-25
1.1884924949847024 1.465863727599742e-26 4.624443472344528e-19 4.624437295782092e-19 6.17656243766729e-25
1.2064549276569216 1.4966103266968263e-26 4.792799620593437e-19 4.792791208932398e-19 8.411661038430705e-25
1.2246888378427687 1.526765932536132e-26 4.963267166886342e-19 4.963255767067956e-19 1.1399818385914613e-24
1.2431983285522175 1.556268481316368e-26 5.135637631526401e-19 5.135622256418224e-19 1.53751081775079e-24
1.2619875648066055 1.58511710851165e-26 5.309894129098001e-19 5.309873491053122e-19 2.063804487794541e-24
1.3004222497298317 1.640431012637752e-26 5.662546685926422e-19 5.662510021184521e-19 3.666474189915363e-24
1.3400274889804893 1.6925810151777737e-26 6.020500625031012e-19 6.020436675003387e-19 6.395002762427334e-24
1.3808389325824078 1.7414807231306528e-26 6.383092352573831e-19 6.382982793985737e-19 1.0955858809409816e-23
1.4228933163050095 1.7874546693482934e-26 6.751135258649576e-19 6.750950808415616e-19 1.8445023395953846e-23
1.466228494730424 1.8316117066126219e-26 7.128604148786581e-19 7.128298828740342e-19 3.05320046237172e-23
1.5108834753276823 1.8733811819069353e-26 7.513227817331607e-19 7.51273069241763e-19 4.971249139772895e-23
1.5568984535646726 1.9123610533044193e-26 7.903138824131523e-19 7.902341814528909e-19 7.970096026150866e-23
1.6043148490894465 1.948839547911718e-26 8.299178785157157e-19 8.29791826260165e-19 1.2605225555066777e-22
1.6531753430134553 1.9831792658273595e-26 8.70262611180614e-19 8.700661744282807e-19 1.964367523332286e-22
1.7035239163302658 2.0159792624116772e-26 9.115987659147157e-19 9.112970604059313e-19 3.017055087842327e-22
1.755405889504358 2.0491813706399532e-26 9.548329184423363e-19 9.54375988860562e-19 4.569295817741423e-22
1.8088679632656115 2.0828899506870265e-26 1.0000981519603633e-18 9.994155388627805e-19 6.826130975827694e-22
1.8639582606462262 2.1174062085724455e-26 1.047634515350122e-18 1.046628205730192e-18 1.0063096199300622e-21
1.9207263702978936 2.1535783910844087e-26 1.0979830022834849e-18 1.0965185207001184e-18 1.4644815833666138e-21
1.979223391128241 2.1926168325556407e-26 1.15193239505958e-18 1.1498276527960321e-18 2.1047422635476744e-21
2.039501978296691 2.2359297108975302e-26 1.2104635347244533e-18 1.207475184643684e-18 2.988350080769289e-21
2.1016163906111602 2.2860205760781746e-26 1.27527255978242e-18 1.2710792127254922e-18 4.193347056927749e-21
2.1656225393682647 2.3449187629809887e-26 1.347969288543726e-18 1.342151788904774e-18 5.817499638952181e-21
2.231578038680979 2.4139775437128777e-26 1.4299298675802904e-18 1.421948206313904e-18 7.98166126638621e-21
2.299542257339062 2.495172862830994e-26 1.5230405498090618e-18 1.5122071578601363e-18 1.0833391948925665e-20
2.369576372248914 2.59123694539022e-26 1.6298486267997636e-18 1.6152977097530332e-18 1.4550917046731022e-20
2.4417434235010123 2.705251174806461e-26 1.7533840598872785e-18 1.7340375846589453e-18 1.9346475228333054e-20
2.5161083711144245 2.8414007001208886e-26 1.8977161730283852e-18 1.8722455707502958e-18 2.547060227808945e-20
2.5927381535095444 3.005408974334332e-26 2.0683863857553207e-18 2.0351710265983756e-18 3.3215359156945714e-20
2.6717017477616296 3.2037087385243437e-26 2.272011019602559e-18 2.2290956637397245e-18 4.2915355862834646e-20
2.753070231689431 3.444904523872173e-26 2.517467736677671e-18 2.4625178659638854e-18 5.49498707137852e-20
2.836916847834745 3.745830880014458e-26 2.8207474559200857e-18 2.751001181731264e-18 6.974627418882165e-20
2.9233170693905177 4.1405015054527366e-26 3.2129080921319052e-18 3.125143805731142e-18 8.776428640076297e-20
2.967498994190263 4.403392043281953e-26 3.468545267672123e-18 3.3705787499149883e-18 9.796651775713587e-20
3.0123486681368425 4.697172756978595e-26 3.755875647083806e-18 3.6466665193902305e-18 1.0920912769357542e-19
3.0578761833420214 5.197606815462152e-26 4.218837062866383e-18 4.097222574045554e-18 1.216144888208273e-19
3.1040917844459814 5.808116425326974e-26 4.785632011742199e-18 4.650463469890642e-18 1.35168541851557e-19
3.127460860933648 6.372995411433073e-26 5.2905999342124165e-18 5.1481526756737324e-18 1.4244725853868473e-19
3.1510058709225794 7.10062233137527e-26 5.939023713746864e-18 5.788973614931154e-18 1.5005009881571031e-19
3.162844764501044 7.744951641294487e-26 6.502285288616101e-18 6.348294612280726e-18 1.539906763353765e-19
3.1747281389236908 8.486643974415019e-26 7.151743957906008e-18 6.993728307064049e-18 1.5801565084195907e-19
3.1986289994194426 1.052094026395594e-25 8.93280509344095e-18 8.766460796261913e-18 1.6634429717903703e-19
3.2227097969389145 1.5203463945017024e-25 1.3005683496182449e-17 1.28304973042576e-17 1.7518619192485115e-19
3.2348180950136065 1.9604036722244227e-25 1.6833127162426242e-17 1.665321816137618e-17 1.7990900105005949e-19
3.240889293275058 2.2883815529262666e-25 1.968620790203408e-17 1.950380764655517e-17 1.8240025547891421e-19
3.2469718861334385 2.6675570557969777e-25 2.2991202075668947e-17 2.2806223998314832e-17 1.8497807735411762e-19
3.2714166318528037 4.683997864750765e-25 4.06744771279565e-17 4.0478832556545914e-17 1.9564457141058767e-19
3.2744851364798273 4.810640631972233e-25 4.181338926934399e-17 4.1616483847410914e-17 1.9690542193307077e-19
3.2775565192852394 4.940869522122278e-25 4.2985601462126386e-17 4.278742852711061e-17 1.9817293501578445e-19
3.283707930232385 4.819081545989293e-25 4.200473315669989e-17 4.180428577109829e-17 2.004473856015993e-19
3.2898708863219004 4.42768707893589e-25 3.866564036454424e-17 3.846311596792858e-17 2.0252439661565504e-19
3.29141343181113 4.335393545527453e-25 3.787742063231756e-17 3.7674374497191644e-17 2.0304613512591518e-19
3.292184975758714 4.290044909196606e-25 3.7490005159408124e-17 3.728669778151292e-17 2.0330737789520765e-19
3.295272960557952 4.0035378083808696e-25 3.501908239159439e-17 3.481475748484635e-17 2.0432490674802874e-19
3.3076538914384823 3.0107288287241916e-25 2.643389334637693e-17 2.6225477854679268e-17 2.084154916976627e-19
3.310756385682612 2.808632190412573e-25 2.468263536851215e-17 2.4473188043944057e-17 2.0944732456808509e-19
3.313861789986515 2.622157791575219e-25 2.3065487969282632e-17 2.2855005125933366e-17 2.1048284334926463e-19
3.3200813396944477 2.361494539892644e-25 2.081158238540182e-17 2.0598875519923472e-17 2.1270686547834393e-19
3.345076488085796 1.903144365813369e-25 1.689846355345459e-17 1.6675853779355522e-17 2.2260977409906566e-19
3.3482140837626964 1.9221346641638794e-25 1.7083091334764746e-17 1.6859140363530785e-17 2.2395097123395845e-19
3.3513546224236106 1.9413225719532711e-25 1.7269808514602318e-17 1.7044509896569553e-17 2.2529861803276793e-19
3.3576445397418455 2.074214384697646e-25 1.8486631826989345e-17 1.825851684231345e-17 2.281149846758988e-19
3.3702598118196083 2.559170622404806e-25 2.2894547086016575e-17 2.2660523783660617e-17 2.340233023559517e-19
3.382922481734668 2.674329435580645e-25 2.4014656766155376e-17 2.3774876385150013e-17 2.397803810053557e-19
3.389271646505754 2.7338981777309467e-25 2.45956410915617e-17 2.4352939807607513e-17 2.427012839541797e-19
3.395632727569191 2.7980994466807575e-25 2.5220476602572584e-17 2.497476503434525e-17 2.4571156822733356e-19
3.421196662673239 3.104949183411185e-25 2.8196939307710624e-17 2.7938750403549125e-17 2.581889041614944e-19
3.4276182099114902 3.048709727703698e-25 2.773817929167494e-17 2.747719024384342e-17 2.609890478315203e-19
3.4340518103208963 2.792379869135856e-25 2.54536914128167e-17 2.5190046334699536e-17 2.6364507811716446e-19
3.4469541582030403 2.4283985919550223e-25 2.2219020676612452e-17 2.1950262208727255e-17 2.6875846788519796e-19
3.472904465399547 2.3358191250311347e-25 2.1532848246652915e-17 2.1252332572726513e-17 2.8051567392640505e-19
3.4990501388274233 2.1889010294673014e-25 2.033039067299337e-17 2.0037807743440757e-17 2.9258292955261006e-19
3.5253949054701885 1.6381525605110313e-25 1.532962568937149e-17 1.5025262523137728e-17 3.0436316623376466e-19
3.5519380250092896 1.1203545270191548e-25 1.0563073115735487e-17 1.0246823292120687e-17 3.1624982361479877e-19
3.578680990867387 9.226321936642316e-26 8.764376465191247e-18 8.435090449684122e-18 3.292860155071233e-19
3.605625307711299 8.503810952792184e-26 8.138860847599793e-18 7.795816235937604e-18 3.430446116621901e-19
3.660119384959845 8.14584756078565e-26 7.914089601707863e-18 7.542010710404624e-18 3.720788913032362e-19
3.715437065384467 7.97708831496899e-26 7.867264337433974e-18 7.464389111590308e-18 4.028752258436652e-19
3.8285932144167436 8.327593640289557e-26 8.463074874612661e-18 7.99334666788763e-18 4.697282067250308e-19
3.94519561050918 8.900990202824353e-26 9.321295956963475e-18 8.777654003909028e-18 5.43641953054448e-19
4.06534921144712 9.591870169153107e-26 1.0350720511485132e-17 9.72592786187276e-18 6.247926496123754e-19
4.189162171576248 1.0369628642213574e-25 1.1530809836374587e-17 1.0817212006719243e-17 7.135978296553453e-19
4.316745939156006 1.1222474425058106e-25 1.2859217634093495e-17 1.204917539855365e-17 8.100422355398477e-19
4.448215356677963 1.2145394410517742e-25 1.4340584762966793e-17 1.3427423784309778e-17 9.131609786570164e-19
4.58368876423945 1.313893712192561e-25 1.5986183300837683e-17 1.4962799621242943e-17 1.0233836795947406e-18
4.723288106065518 1.420715746387857e-25 1.7812343597603046e-17 1.6670646265162747e-17 1.141697332440303e-18
4.867139040275056 1.5355104762049422e-25 1.983791247594098e-17 1.8572306930165653e-17 1.2656055457753256e-18
4.940699165968905 1.5969006072068335e-25 2.0942847485944804e-17 1.9612741604242728e-17 1.3301058817020682e-18
5.015371051989984 1.6597542139354754e-25 2.2096133336069048e-17 2.0699957045262414e-17 1.3961762908066397e-18
5.091171501069577 1.7270283691935026e-25 2.33392357890756e-17 2.1874086075200422e-17 1.4651497138751706e-18
5.129500256944802 1.7612468337438224e-25 2.39808578269583e-17 2.2480654414483222e-17 1.5002034124750769e-18
5.168117569889187 1.7961186528976642e-25 2.4639780861669575e-17 2.310385620068409e-17 1.5359246609854783e-18
5.20702561229733 1.8337004256498497e-25 2.5344722047720734e-17 2.3770080843834647e-17 1.5746412038860852e-18
5.246226572918644 1.8718097645311078e-25 2.6066227683926962e-17 2.44523721710366e-17 1.6138555128903636e-18
5.265937586045735 1.8910644820060419e-25 2.643330567674706e-17 2.4799658424623162e-17 1.6336472521239074e-18
5.285722656980489 1.9104537955759953e-25 2.680466251732921e-17 2.5151101614376123e-17 1.653560902953083e-18
5.305582063971359 1.929978661830714e-25 2.71803457437878e-17 2.5506750159689542e-17 1.6735955840982578e-18
5.3255160863122235 1.9500630724962009e-25 2.756638340693495e-17 2.5872498245750318e-17 1.6938851611846365e-18
5.365609099470188 1.9939864417837252e-25 2.839949803333421e-17 2.6663625686389346e-17 1.7358723469448633e-18
5.406003951863644 2.0387667076208784e-25 2.925589071144638e-17 2.7477493406714016e-17 1.7783973047323582e-18
5.446702915881641 2.0844313890217695e-25 3.0136355156066255e-17 2.8314901509848443e-17 1.8214536462178134e-18
5.487708281020852 2.131833338504438e-25 3.105372476657442e-17 2.918853198360376e-17 1.8651927829706626e-18
5.529022354014368 2.187651339756853e-25 3.2106715940002364e-17 3.019587142546062e-17 1.910844514541745e-18
5.570647458961463 2.2452640391004353e-25 3.320033978466035e-17 3.124325516794484e-17 1.9570846167155104e-18
5.612585937458331 2.3047796961916995e-25 3.4336961082102295e-17 3.233305386526156e-17 2.003907216840734e-18
5.654840148729818 2.367601074452774e-25 3.5538434613783776e-17 3.348692936666013e-17 2.051505247123641e-18
5.67608639626678 2.405576838544855e-25 3.624412870567817e-17 3.416774170349892e-17 2.076387002179258e-18
5.686739436050992 2.424930333717155e-25 3.660429348440259e-17 3.451540375220625e-17 2.0888897321963374e-18
5.6974124697621304 2.444534707642456e-25 3.696947664791984e-17 3.486804305309329e-17 2.1014335948265405e-18
5.718818669136295 2.484518326874828e-25 3.7715334508076084e-17 3.55886901034959e-17 2.126644404580189e-18
5.740305295436557 2.527197095304906e-25 3.850734159268218e-17 3.635515529450879e-17 2.152186298173406e-18
5.7835210386641895 2.6298312323581543e-25 4.03728707698564e-17 3.816779759181604e-17 2.205073178040357e-18
5.827062130521658 2.743520346630618e-25 4.24352990585378e-17 4.0176208358624083e-17 2.2590906999137163e-18
5.8489554468988025 2.817928588042649e-25 4.3749966952623354e-17 4.146180997147159e-17 2.2881569811517573e-18
5.870931020387893 2.896479876512863e-25 4.513847956828744e-17 4.282102893256426e-17 2.3174506357231733e-18
5.892989160043636 2.97949706719857e-25 4.660666607377939e-17 4.4259694476339965e-17 2.34697159743943e-18
5.915130176081913 3.071897197674556e-25 4.8232571583677805e-17 4.585502389042497e-17 2.3775476932528406e-18
5.95966208400165 3.3194704594130794e-25 5.251215930606331e-17 5.006556555597929e-17 2.4465937500840134e-18
6.004529249263818 3.6629664032653066e-25 5.838231785855253e-17 5.585834208333425e-17 2.5239757752182816e-18
6.027089341400364 3.896181779277315e-25 6.233274794974403e-17 5.976437616070093e-17 2.568371789043116e-18
6.049734195844842 4.168179570193959e-25 6.693482732650638e-17 6.431948378039081e-17 2.615343546115582e-18
6.095279466722835 4.940807180076834e-25 7.993941415817368e-17 7.720971327064758e-17 2.729700887526106e-18
6.141167624020661 6.110268185658047e-25 9.960488926690656e-17 9.672812210591122e-17 2.876767160995342e-18
6.164241091010745 6.854037899236844e-25 1.1214903751595263e-16 1.0918062826793318e-16 2.9684092480194523e-18
6.187401249150058 7.694115559361525e-25 1.2636779818868846e-16 1.2330509560938265e-16 3.0627025793058302e-18
6.1990139391386085 8.104411311531432e-25 1.333562946582319e-16 1.302455724225583e-16 3.110722235673606e-18
6.204828454712694 8.319897307306483e-25 1.3703047965080033e-16 1.3389548303750294e-16 3.1349966132974004e-18
6.210648424152782 8.47824350359552e-25 1.397694525065936e-16 1.366136167411988e-16 3.15583576539477e-18
6.233982942956859 9.016959481017115e-25 1.4920904847148167e-16 1.4597988350554463e-16 3.229164965937062e-18
6.239830258556775 9.08675408189581e-25 1.5050501923050448e-16 1.4726517466718252e-16 3.2398445633219605e-18
6.245683058788269 9.095213133760009e-25 1.5078642879466055e-16 1.4753588001952905e-16 3.2505487751315564e-18
6.257405133728602 9.085906016914425e-25 1.5091483993518693e-16 1.4764525779315214e-16 3.2695821420347852e-18
6.269149208991335 8.987432305969972e-25 1.4955938537065024e-16 1.4628137849243505e-16 3.2780068782151225e-18
6.280915325867298 8.732782666429353e-25 1.4559451821922578e-16 1.4232122904867387e-16 3.273289170551918e-18
6.304513850009849 8.102134457556836e-25 1.3558775887434007e-16 1.3233582401912193e-16 3.251934855218133e-18
6.32820103803542 7.320788258788192e-25 1.2297237095894622e-16 1.1975447258730236e-16 3.2178983716438747e-18
6.3519772230701035 6.606386283626913e-25 1.1138900614287632e-16 1.0820112547294364e-16 3.187880669932698e-18
6.375842739491607 6.004983611937414e-25 1.016292817297339e-16 9.84673207288802e-17 3.16196100085371e-18
6.399797922933955 5.530043462433803e-25 9.394295972471492e-17 9.079176782142995e-17 3.1511919032849973e-18
6.42384311029221 5.13578553138491e-25 8.75732037556708e-17 8.442976874892387e-17 3.143435006746916e-18
6.447978639727206 4.854461598769465e-25 8.308719414854802e-17 7.993963690481747e-17 3.1475572437305597e-18
6.472204850670314 4.621796922510209e-25 7.940220203097408e-17 7.624813368650548e-17 3.1540683444685988e-18
6.496522083828205 4.4773741702838145e-25 7.721003363792883e-17 7.403976958358351e-17 3.1702640543453367e-18
