Dust emission spectrum from A.P. Jones, M. Kohler, N. Ysard, M. Bocchio, and L. Verstraete (2017), A&A, 602A, 46J 
inside the DustPedia framework.

lambda    nu*dP/dnu     j_nu    j_nu(carb.) j_nu(sil)
 (um)   (erg s-1 H-1) (Jy cm2 sr-1 H-1)
0.9927057738263894 1.7014139539063878e-26 4.483322406926652e-19 4.483322406925966e-19 6.854695484839677e-32
1.0001793341362166 1.729528184685717e-26 4.59171531017325e-19 4.591715310172423e-19 8.259752247747705e-32
1.0077091589558085 1.7576024701823533e-26 4.701379325520725e-19 4.70137932551973e-19 9.940212685902993e-32
1.0114953028030835 1.771621176108438e-26 4.756682523138675e-19 4.756682523137586e-19 1.0899408375542294e-31
1.0152956718711033 1.7856257578270186e-26 4.81229685725118e-19 4.812296857249984e-19 1.1947355274117757e-31
1.0229392996569957 1.8135733393394833e-26 4.924412438631082e-19 4.924412438629648e-19 1.434164503389315e-31
1.0267826658714554 1.8274824509035247e-26 4.980823776907021e-19 4.98082377690545e-19 1.5706136629990157e-31
1.0306404723013447 1.8413712888402265e-26 5.037534031635627e-19 5.037534031633908e-19 1.7194945861922647e-31
1.03451277320114 1.855238512886107e-26 5.094540763866953e-19 5.094540763865071e-19 1.8818854247220334e-31
1.0383996230291617 1.8690827902031216e-26 5.151841504132547e-19 5.151841504130488e-19 2.0589527344100774e-31
1.0403485208654093 1.875995909419822e-26 5.180601347368139e-19 5.180601347365986e-19 2.153380450759654e-31
1.0423010764483396 1.8829027956342573e-26 5.209433753029612e-19 5.209433753027359e-19 2.251958273176672e-31
1.0462171883269815 1.8966972119535016e-26 5.267314981805899e-19 5.267314981803436e-19 2.4622662842531523e-31
1.0471985131304309 1.9001416641471322e-26 5.281830143020813e-19 5.281830143018295e-19 2.5177170544980576e-31
1.048180758391296 1.9035844147919067e-26 5.296363165532494e-19 5.29636316552992e-19 2.574364974661569e-31
1.0501480137395462 1.9104647301101405e-26 5.325482632945097e-19 5.325482632942405e-19 2.6913512962638063e-31
1.0521189612883777 1.9173379955934112e-26 5.354673059955886e-19 5.354673059953072e-19 2.8134281671268535e-31
1.0531058218030118 1.920766658043805e-26 5.369280033039631e-19 5.369280033036754e-19 2.876445164767555e-31
1.0540936079674168 1.9241762114660607e-26 5.383856229862841e-19 5.3838562298599e-19 2.940828163802618e-31
1.058054026499678 1.9377950774397507e-26 5.442333178278843e-19 5.442333178275631e-19 3.2124534076681466e-31
1.0590464539527713 1.941194857402268e-26 5.456995247534932e-19 5.456995247531648e-19 3.284028252618841e-31
1.06003981227728 1.9445926230384474e-26 5.47167436604657e-19 5.471674366043212e-19 3.357130573348266e-31
1.0620293250338977 1.9513820321969278e-26 5.501083582825839e-19 5.501083582822331e-19 3.5080424250763684e-31
1.0660195594769086 1.964935810192979e-26 5.560104753807876e-19 5.560104753804045e-19 3.8296024924622075e-31
1.070024785945596 1.97845515543922e-26 5.619393976419786e-19 5.619393976415607e-19 4.179299406903188e-31
1.0740450607676866 1.9919388217094617e-26 5.678948511334901e-19 5.67894851133034e-19 4.55946918782188e-31
1.07808044048254 2.0053855727409187e-26 5.738765595291682e-19 5.738765595286708e-19 4.972630577049936e-31
1.0861967418109137 2.032139676664855e-26 5.859107740535031e-19 5.859107740529122e-19 5.908998575950251e-31
1.0902777775684922 2.045390581535699e-26 5.91947028898317e-19 5.91947028897673e-19 6.4382831139941365e-31
1.0943741465085532 2.0585987846967932e-26 5.980079668409036e-19 5.980079668402023e-19 7.012742718299272e-31
1.1026131145906286 2.0848823900328486e-26 6.102027321628181e-19 6.102027321619866e-19 8.31207048915927e-31
1.1109141095355224 2.110981214345469e-26 6.224927307897104e-19 6.224927307887264e-19 9.839642389041045e-31
1.1192775983109025 2.1368619377621046e-26 6.348683958141468e-19 6.348683958129834e-19 1.1633218584835788e-30
1.1277040513999907 2.1624043716971997e-26 6.472938554692228e-19 6.472938554678491e-19 1.3736397241680605e-30
1.1361939428280308 2.187731860902619e-26 6.598055956921796e-19 6.598055956905597e-19 1.6199441882501772e-30
1.1447477501889525 2.2128359570059033e-26 6.724011561593593e-19 6.724011561574515e-19 1.9080231551621032e-30
1.1533659546722406 2.2377220852249294e-26 6.850822397063384e-19 6.850822397040939e-19 2.244535722771928e-30
1.1707974979042381 2.2869207702246694e-26 7.107262197938266e-19 7.10726219790732e-19 3.0946032380655335e-30
1.1884924949847024 2.3351415802509012e-26 7.366803635610655e-19 7.366803635568197e-19 4.245687515656647e-30
1.2064549276569216 2.3827614369805676e-26 7.63064233047922e-19 7.6306423304212495e-19 5.7967540101390854e-30
1.2246888378427687 2.4292603643757644e-26 7.89712944819015e-19 7.897129448111387e-19 7.876426027894556e-30
1.2431983285522175 2.4745295510261123e-26 8.165870629098999e-19 8.165870628992488e-19 1.0651309684583837e-29
1.2619875648066055 2.5185520139218814e-26 8.436754912770191e-19 8.436754912626827e-19 1.4336106566858586e-29
1.3004222497298317 2.6021249869751974e-26 8.982184625777074e-19 8.98218462552096e-19 2.5611642054333543e-29
1.3400274889804893 2.679651805259784e-26 9.531505566802993e-19 9.531505566353683e-19 4.4930975020177875e-29
1.3808389325824078 2.750844516497466e-26 1.008273842090487e-18 1.0082738420130491e-18 7.743824376744438e-29
1.4228933163050095 2.8160487870107797e-26 1.0636088613647168e-18 1.0636088612335338e-18 1.3118334200484593e-28
1.466228494730424 2.8768323284861974e-26 1.1196586480732392e-18 1.1196586478546985e-18 2.185403547395212e-28
1.5108834753276823 2.9320135959390606e-26 1.1758891528621195e-18 1.1758891525039357e-18 3.581838222399069e-28
1.5568984535646726 2.980636363114026e-26 1.2317957909277096e-18 1.2317957903495458e-18 5.781637579491408e-28
1.6043148490894465 3.0227887135279254e-26 1.2872616419450798e-18 1.2872616410243023e-18 9.207778493920387e-28
1.6531753430134553 3.0585980375673935e-26 1.3421799837216607e-18 1.342179982276447e-18 1.4452140413935255e-27
1.7035239163302658 3.088488759238458e-26 1.396573166181861e-18 1.3965731639457582e-18 2.2361029624617053e-27
1.755405889504358 3.1149163278337044e-26 1.4514208896405784e-18 1.4514208862282148e-18 3.412363373928649e-27
1.8088679632656115 3.1372737934488413e-26 1.5063598160752355e-18 1.5063598109373815e-18 5.137853490741665e-27
1.8639582606462262 3.155149856048838e-26 1.561081608675956e-18 1.561081601040251e-18 7.635705676571129e-27
1.9207263702978936 3.1688418997133876e-26 1.6156061730620494e-18 1.6156061618566174e-18 1.120543191187977e-26
1.979223391128241 3.179042839018505e-26 1.6701698067688544e-18 1.6701697905247668e-18 1.624408782209593e-26
2.039501978296691 3.186582117022337e-26 1.7251174910647096e-18 1.7251174677937712e-18 2.327093813520032e-26
2.1016163906111602 3.193783802446903e-26 1.7816746217243196e-18 1.7816745887652865e-18 3.295903291726299e-26
2.1656225393682647 3.201995586500828e-26 1.8406572461251043e-18 1.8406571999573e-18 4.6167804006204493e-26
2.231578038680979 3.2113141573632764e-26 1.9022356027117034e-18 1.9022355387297222e-18 6.398198145829929e-26
2.299542257339062 3.222547083426248e-26 1.9670259944068414e-18 1.967025906650347e-18 8.775649449815464e-26
2.369576372248914 3.237480001757233e-26 2.0363256801130192e-18 2.0363255609439303e-18 1.1916908876341134e-25
2.4417434235010123 3.2582221961697484e-26 2.1117872216592497e-18 2.1117870613851227e-18 1.6027412709389643e-25
2.5161083711144245 3.288385983569752e-26 2.1962489359260983e-18 2.1962487223542556e-18 2.1357184288614616e-25
2.5927381535095444 3.3338826698145757e-26 2.294448970119753e-18 2.294448688040738e-18 2.8207901531881937e-25
2.6717017477616296 3.4017720439386746e-26 2.41247385477513e-18 2.4124734853833067e-18 3.6939182354065844e-25
2.753070231689431 3.5026836554153477e-26 2.5596915772820245e-18 2.5596910975089935e-18 4.797730305646793e-25
2.836916847834745 3.660688477790464e-26 2.7566321175192963e-18 2.7566314992500765e-18 6.1826921980538e-25
2.9233170693905177 3.928784781508821e-26 3.048622105349083e-18 3.0486213146431554e-18 7.907059279494063e-25
2.967498994190263 4.1564231189027973e-26 3.2740082186205163e-18 3.274007328140338e-18 8.904801782045332e-25
3.0123486681368425 4.422291240216083e-26 3.536079431773669e-18 3.5360784300789005e-18 1.0016947685114695e-24
3.0578761833420214 5.0169642408272893e-26 4.0722115838605414e-18 4.0722104580225165e-18 1.1258380239676873e-24
3.1040917844459814 5.783245946621055e-26 4.76513983315511e-18 4.765138569778499e-18 1.2633766112599643e-24
3.127460860933648 6.593716672225425e-26 5.47383369046656e-18 5.4738323524179055e-18 1.338048654331606e-24
3.1510058709225794 7.673510023463563e-26 6.418192078129805e-18 6.418190661471031e-18 1.4166587741072788e-24
3.162844764501044 8.678554586830458e-26 7.286092984173588e-18 7.286091526464208e-18 1.4577093792748329e-24
3.1747281389236908 9.847321453429214e-26 8.298394738654628e-18 8.298393238843021e-18 1.4998116024818015e-24
3.1986289994194426 1.310726100373817e-25 1.1128720904953387e-17 1.1128719317400375e-17 1.5875530086130563e-24
3.2227097969389145 2.0791422112340887e-25 1.7785858302197066e-17 1.7785856620122473e-17 1.6820745871516108e-24
3.2348180950136065 2.807829459683631e-25 2.4109601004588608e-17 2.410959927128183e-17 1.733306776000453e-24
3.240889293275058 3.3526146919076117e-25 2.884146210491401e-17 2.8841460344257413e-17 1.7606566097020525e-24
3.2469718861334385 3.9828465698608863e-25 3.432744957603104e-17 3.432744778684494e-17 1.7891860836734527e-24
3.2714166318528037 7.344602889874283e-25 6.377839847158225e-17 6.377839656281137e-17 1.908770867872131e-24
3.2744851364798273 7.554760352380489e-25 6.566487909141228e-17 6.566487716856227e-17 1.9228500038750857e-24
3.2775565192852394 7.770954050236779e-25 6.760735783212777e-17 6.760735589509933e-17 1.9370284478182856e-24
3.283707930232385 7.563061270931632e-25 6.592218195553244e-17 6.592217999369842e-17 1.9618340328642245e-24
3.2898708863219004 6.90374227609408e-25 6.028827495214659e-17 6.02882729682243e-17 1.9839222938034237e-24
3.29141343181113 6.7482584996009795e-25 5.89581137308034e-17 5.895811174132786e-17 1.989475546713283e-24
3.292184975758714 6.671859294346067e-25 5.830429393213984e-17 5.830429193988298e-17 1.9922568652191667e-24
3.295272960557952 6.189617058617435e-25 5.4140792499672434e-17 5.414079049673068e-17 2.002941758063967e-24
3.3076538914384823 4.51898259016474e-25 3.967620819347193e-17 3.967620614758478e-17 2.0458871390650654e-24
3.310756385682612 4.1789662884141935e-25 3.672531471594371e-17 3.672531265920433e-17 2.056739377226658e-24
3.313861789986515 3.8652485387095635e-25 3.400018258029199e-17 3.400018051265373e-17 2.067638255634364e-24
3.3200813396944477 3.4252979054303624e-25 3.018676026947283e-17 3.018675817799191e-17 2.091480906508451e-24
3.345076488085796 2.6404952369516945e-25 2.3445574243459317e-17 2.3445572043082593e-17 2.2003767245905954e-24
3.3482140837626964 2.669932355605177e-25 2.3729189811103737e-17 2.372918759566395e-17 2.2154397861437067e-24
3.3513546224236106 2.6996949406225464e-25 2.4016212115373425e-17 2.40162098847778e-17 2.2305956207888596e-24
3.3576445397418455 2.917173878841751e-25 2.5999588022970407e-17 2.5999585760296046e-17 2.2626743625080212e-24
3.3702598118196083 3.719307849393066e-25 3.327322842011406e-17 3.32732260892156e-17 2.3308984685426458e-24
3.382922481734668 3.9020252514663486e-25 3.5038988039441103e-17 3.5038985642772484e-17 2.3966686292386506e-24
3.389271646505754 3.996685597975099e-25 3.595636637981745e-17 3.595636394962956e-17 2.4301878894585122e-24
3.395632727569191 4.0986863924843197e-25 3.6943227441596825e-17 3.694322497671341e-17 2.464883421909548e-24
3.421196662673239 4.588449322283406e-25 4.166903205636053e-17 4.166902944647385e-17 2.609886682009974e-24
3.4276182099114902 4.489782059401299e-25 4.084953664579331e-17 4.084953400363774e-17 2.6421555578261766e-24
3.4340518103208963 4.0573652986894097e-25 3.6984554072820697e-17 3.6984551400357596e-17 2.6724631020365046e-24
3.4469541582030403 3.4415336133238887e-25 3.148886132903694e-17 3.148885859859576e-17 2.730441174741896e-24
3.472904465399547 3.2690048345784975e-25 3.0135460518423165e-17 3.0135457650065706e-17 2.8683574581488857e-24
3.4990501388274233 3.0050970414894083e-25 2.791117370829894e-17 2.791117069720472e-17 3.0110942085790284e-24
3.5253949054701885 2.0657075086593761e-25 1.9330631135841093e-17 1.933062798653917e-17 3.149301916809968e-24
3.5519380250092896 1.182795779313362e-25 1.115178989914214e-17 1.1151786609796387e-17 3.289345749522418e-24
3.578680990867387 8.327722292998909e-26 7.910768101808723e-18 7.91076465474199e-18 3.447066731343873e-24
3.605625307711299 6.912558417420227e-26 6.61589860976567e-18 6.61589499318033e-18 3.616585337352607e-24
3.660119384959845 5.881682286501585e-26 5.71434221875643e-18 5.714338236582239e-18 3.982174190486081e-24
3.715437065384467 5.152697994647293e-26 5.081758603422683e-18 5.0817542234424774e-18 4.379980203814889e-24
3.8285932144167436 4.7881501370991296e-26 4.866048329388442e-18 4.866043046453113e-18 5.282935330574221e-24
3.94519561050918 4.726306333910935e-26 4.949483048265325e-18 4.949476702808042e-18 6.345457282251362e-24
4.06534921144712 4.791262932539827e-26 5.17031847149544e-18 5.1703108765079415e-18 7.594987497006808e-24
4.189162171576248 4.9322289550409857e-26 5.484535282055938e-18 5.484526214189276e-18 9.06786666183926e-24
4.316745939156006 5.131152614355945e-26 5.879506219628499e-18 5.879495416234945e-18 1.0803393554792879e-23
4.448215356677963 5.38306663560193e-26 6.356016178914456e-18 6.356003340637286e-18 1.2838277168644182e-23
4.58368876423945 5.690560202464338e-26 6.9237212749302275e-18 6.923706038061139e-18 1.5236869087047388e-23
4.723288106065518 6.061915345046492e-26 7.600177534463162e-18 7.600159449412015e-18 1.808505114819425e-23
4.867139040275056 6.511949046913509e-26 8.413063749310139e-18 8.413042307130386e-18 2.1442179751539728e-23
4.940699165968905 6.782849695309864e-26 8.895493310471435e-18 8.895469958323758e-18 2.3352147677089756e-23
5.015371051989984 7.066572537324776e-26 9.407653717805371e-18 9.407628284359716e-18 2.54334456541843e-23
5.091171501069577 7.408374844514118e-26 1.0011752579994722e-17 1.0011724852230503e-17 2.7727764220483384e-23
5.129500256944802 7.585171818684451e-26 1.0327849764832007e-17 1.03278208130494e-17 2.8951782607565106e-23
5.168117569889187 7.769807344241668e-26 1.065889216119696e-17 1.0658861926625617e-17 3.023457134481255e-23
5.20702561229733 7.9917497763577e-26 1.1045897897140887e-17 1.1045866284071957e-17 3.161306893205196e-23
5.246226572918644 8.220162945814544e-26 1.144713757801431e-17 1.1447104523512552e-17 3.305450175973038e-23
5.265937586045735 8.336865103021481e-26 1.1653272839231938e-17 1.1653239039499198e-17 3.379973273827364e-23
5.285722656980489 8.455268865460138e-26 1.1863182923176045e-17 1.1863148361365104e-17 3.456181094321587e-23
5.305582063971359 8.575403334524992e-26 1.2076943239555084e-17 1.2076907898429761e-17 3.53411253212014e-23
5.3255160863122235 8.703681812688382e-26 1.2303654855297094e-17 1.2303618713894827e-17 3.6141402270648167e-23
5.365609099470188 9.016301180273146e-26 1.2841533035102209e-17 1.2841495211820849e-17 3.7823281357512e-23
5.406003951863644 9.341301015379709e-26 1.3404578394728793e-17 1.3404538810721868e-17 3.958400692139007e-23
5.446702915881641 9.679263721261418e-26 1.3994115166825246e-17 1.3994073739491344e-17 4.142733390812732e-23
5.487708281020852 1.0043317093967434e-25 1.4629774248595536e-17 1.4629730884956544e-17 4.336363899406546e-23
5.529022354014368 1.0535794016918486e-25 1.5462690034563527e-17 1.5462644585037468e-17 4.5449526060102e-23
5.570647458961463 1.105692107283854e-25 1.6349682273336847e-17 1.634963463576607e-17 4.7637570774764746e-23
5.612585937458331 1.1608687474330128e-25 1.729480048262313e-17 1.7294750549790175e-17 4.9932832957887044e-23
5.654840148729818 1.2212898106396055e-25 1.833194305756417e-17 1.8331890705571327e-17 5.235199283538781e-23
5.67608639626678 1.261661442377989e-25 1.9009087121158173e-17 1.9009033464872963e-17 5.365628520706183e-23
5.686739436050992 1.2824543514723385e-25 1.935863262087353e-17 1.9358578299922722e-17 5.432095081718659e-23
5.6974124697621304 1.303664591587995e-25 1.971573466506968e-17 1.971567967096312e-17 5.499410656490126e-23
5.718818669136295 1.3473763072645506e-25 2.0453360149151765e-17 2.045330378282375e-17 5.636632801807914e-23
5.740305295436557 1.3953577517657444e-25 2.126130870087829e-17 2.1261250911524877e-17 5.77893534087083e-23
5.7835210386641895 1.518460256480916e-25 2.3311229614189175e-17 2.3311168740446986e-17 6.087374218757774e-23
5.827062130521658 1.6596880624947776e-25 2.5671163460605277e-17 2.5671099294362055e-17 6.416624322644748e-23
5.8489554468988025 1.7577415858722843e-25 2.7289952136998695e-17 2.7289886099611287e-17 6.603738740208144e-23
5.870931020387893 1.8628005922333565e-25 2.9029715398385465e-17 2.9029647430466394e-17 6.796791907055962e-23
5.892989160043636 1.9754235656075555e-25 3.090048568603274e-17 3.0900415726242075e-17 6.995979065811558e-23
5.915130176081913 2.1031575647418904e-25 3.3022165543156165e-17 3.3022093468441544e-17 7.20747146264943e-23
5.95966208400165 2.4580934945670825e-25 3.888565925021887e-17 3.888558217755048e-17 7.707266838601596e-23
6.004529249263818 2.9671420386222995e-25 4.7291896937929336e-17 4.729181377325869e-17 8.316467064842792e-23
6.027089341400364 3.319855261152215e-25 5.311243492890012e-17 5.3112348005996583e-17 8.69229035209505e-23
6.049734195844842 3.7360486593415854e-25 5.999544109967845e-17 5.999535002850215e-17 9.107117628516006e-23
6.095279466722835 4.935561793461881e-25 7.985454682420378e-17 7.985444484308469e-17 1.0198111909768453e-22
6.141167624020661 6.777993397741198e-25 1.1048963176746853e-16 1.1048951440680269e-16 1.1736066585442745e-22
6.164241091010745 7.954188895337968e-25 1.3015023289141085e-16 1.3015010555476807e-16 1.2733664279978393e-22
6.187401249150058 9.293030265749948e-25 1.5262829939626137e-16 1.5262816116781232e-16 1.382284490216397e-22
6.1990139391386085 9.94702636933756e-25 1.63676117671269e-16 1.636759738408577e-16 1.4383041128936982e-22
6.204828454712694 1.0291424582881792e-24 1.6950195354501147e-16 1.6950180681369265e-16 1.4673131880181246e-22
6.210648424152782 1.0543269378749451e-24 1.7381277007111162e-16 1.7381262090404878e-16 1.4916706281989264e-22
6.233982942956859 1.1399782989908431e-24 1.8863906134729038e-16 1.8863890349551667e-16 1.5785177379531529e-22
6.239830258556775 1.1509926488570652e-24 1.906403201727894e-16 1.9064016107524164e-16 1.5909754773475004e-22
6.245683058788269 1.1520699741310475e-24 1.9099774196161398e-16 1.9099758160837097e-16 1.6035324300176797e-22
6.257405133728602 1.1500003842635963e-24 1.9101245774880076e-16 1.910122951726639e-16 1.6257613681062927e-22
6.269149208991335 1.1335300887925964e-24 1.8863014218905176e-16 1.8862997875018062e-16 1.634388710311727e-22
6.280915325867298 1.0918122728678812e-24 1.8202889952262274e-16 1.820287369133337e-16 1.6260928907422103e-22
6.304513850009849 9.887842923156583e-25 1.6547126798196554e-16 1.6547110860316516e-16 1.5937880036243335e-22
6.32820103803542 8.60959055192381e-25 1.4462127925703272e-16 1.44621125034148e-16 1.542228847548688e-22
6.3519772230701035 7.437623982157651e-25 1.2540434480651232e-16 1.2540419540527195e-16 1.4940124034717973e-22
6.375842739491607 6.4518193378761145e-25 1.0919159943332594e-16 1.0919145422189597e-16 1.452114299541722e-22
6.399797922933955 5.663321891566937e-25 9.620705948908043e-17 9.620691687280894e-17 1.4261627149060102e-22
6.42384311029221 5.008184509050569e-25 8.53974060592853e-17 8.539726556046773e-17 1.404988175474182e-22
6.447978639727206 4.532500433553739e-25 7.757662427415603e-17 7.757648443978725e-17 1.398343687960124e-22
6.472204850670314 4.136927200631642e-25 7.107216843997109e-17 7.10720289136368e-17 1.3952633430480955e-22
6.496522083828205 3.882013165587598e-25 6.694333680825731e-17 6.694319633089197e-17 1.404773653445454e-22
