Dust emission spectrum from A.P. Jones, M. Kohler, N. Ysard, M. Bocchio, and L. Verstraete (2017), A&A, 602A, 46J 
inside the DustPedia framework.

lambda    nu*dP/dnu     j_nu    j_nu(carb.) j_nu(sil)
 (um)   (erg s-1 H-1) (Jy cm2 sr-1 H-1)
0.9927057738263894 2.6782309572635767e-26 7.057290692871007e-19 7.057290692870983e-19 2.2123501574822406e-33
1.0001793341362166 2.7224963592720363e-26 7.227941311076098e-19 7.227941311076071e-19 2.6663330750678092e-33
1.0077091589558085 2.7666991644754515e-26 7.400593975297967e-19 7.400593975297937e-19 3.2094530373027626e-33
1.0114953028030835 2.7887716502200153e-26 7.4876624577071545e-19 7.48766245770712e-19 3.519528812854616e-33
1.0152956718711033 2.8108219722635387e-26 7.575221002567303e-19 7.575221002567264e-19 3.8583453264657454e-33
1.0229392996569957 2.8548258855212216e-26 7.751735094378288e-19 7.75173509437824e-19 4.6326333686150145e-33
1.0267826658714554 2.8767261304055243e-26 7.840549113283923e-19 7.840549113283873e-19 5.073995640416442e-33
1.0306404723013447 2.898594529883159e-26 7.929833964879562e-19 7.929833964879507e-19 5.5556467616463185e-33
1.03451277320114 2.920428973810272e-26 8.019585811588817e-19 8.019585811588755e-19 6.081089431370378e-33
1.0383996230291617 2.9422273637189273e-26 8.109800767762878e-19 8.109800767762812e-19 6.65411444601494e-33
1.0403485208654093 2.953112385936963e-26 8.155080684715336e-19 8.155080684715269e-19 6.959739173961469e-33
1.0423010764483396 2.963987613219585e-26 8.200474900599726e-19 8.200474900599654e-19 7.278822938989357e-33
1.0462171883269815 2.985707648394716e-26 8.291604231064526e-19 8.291604231064448e-19 7.95965021534254e-33
1.0471985131304309 2.991131131881668e-26 8.314457217689441e-19 8.314457217689362e-19 8.139179223292079e-33
1.048180758391296 2.9965519410161566e-26 8.337338339543936e-19 8.337338339543852e-19 8.322592052428725e-33
1.0501480137395462 3.007385408183505e-26 8.383184734810797e-19 8.38318473481071e-19 8.70139128628843e-33
1.0521189612883777 3.0182077943346867e-26 8.429142906893094e-19 8.429142906893001e-19 9.096707983417367e-33
1.0531058218030118 3.0236064472042217e-26 8.452140532925303e-19 8.452140532925213e-19 9.300786639197722e-33
1.0540936079674168 3.0289750238893284e-26 8.475089732057605e-19 8.475089732057508e-19 9.509297778305833e-33
1.058054026499678 3.0504189149829036e-26 8.567157725777106e-19 8.567157725777002e-19 1.0389082905363453e-32
1.0590464539527713 3.05577212701983e-26 8.590242195990601e-19 8.590242195990495e-19 1.0620936917834157e-32
1.06003981227728 3.061122172231791e-26 8.613353523354554e-19 8.613353523354445e-19 1.0857749500795387e-32
1.0620293250338977 3.0718126375810656e-26 8.659656485147349e-19 8.659656485147235e-19 1.134665654669155e-32
1.0660195594769086 3.0931541990522706e-26 8.752581777580945e-19 8.752581777580824e-19 1.238855251925274e-32
1.070024785945596 3.114441621795817e-26 8.845929330930513e-19 8.845929330930378e-19 1.352182240509623e-32
1.0740450607676866 3.135672943567153e-26 8.939694834413505e-19 8.939694834413359e-19 1.475407393514244e-32
1.07808044048254 3.1568462177942903e-26 9.033873939535443e-19 9.033873939535284e-19 1.609351200598375e-32
1.0861967418109137 3.1989735176576133e-26 9.223347545595637e-19 9.223347545595445e-19 1.9130021806206806e-32
1.0902777775684922 3.2198386828008703e-26 9.318386224233135e-19 9.318386224232929e-19 2.0846905696742626e-32
1.0943741465085532 3.240636689029127e-26 9.413813765375262e-19 9.413813765375035e-19 2.2710690931507963e-32
1.1026131145906286 3.2820238304701526e-26 9.60581718158601e-19 9.605817181585742e-19 2.692751532370621e-32
1.1109141095355224 3.32312033182445e-26 9.79932097946976e-19 9.799320979469441e-19 3.1887071212082083e-32
1.1192775983109025 3.363873736656311e-26 9.994174565853908e-19 9.994174565853526e-19 3.771264284216823e-32
1.1277040513999907 3.4040948389795137e-26 1.0189813253922148e-18 1.0189813253921701e-18 4.454665453241083e-32
1.1361939428280308 3.4439778021541e-26 1.0386811409161432e-18 1.0386811409160908e-18 5.255339390147961e-32
1.1447477501889525 3.4835093218478294e-26 1.058513030794961e-18 1.058513030794899e-18 6.192214834801666e-32
1.1533659546722406 3.52269793254005e-26 1.0784796759919554e-18 1.0784796759918826e-18 7.287082191848416e-32
1.1707974979042381 3.6001728596620895e-26 1.1188569715515743e-18 1.118856971551474e-18 1.0054737505120313e-31
1.1884924949847024 3.6761092226180545e-26 1.1597230341457407e-18 1.1597230341456024e-18 1.380587597809943e-31
1.2064549276569216 3.751100335332709e-26 1.2012660839826244e-18 1.2012660839824354e-18 1.8865233078573378e-31
1.2246888378427687 3.8243276045326456e-26 1.243226563449979e-18 1.243226563449722e-18 2.5655390771395813e-31
1.2431983285522175 3.8956196779231333e-26 1.2855423891341895e-18 1.285542389133842e-18 3.4724434148737065e-31
1.2619875648066055 3.964949780163031e-26 1.3281960964779624e-18 1.3281960964774944e-18 4.6779597286623204e-31
1.3004222497298317 4.09657182635377e-26 1.4140813627803297e-18 1.4140813627794925e-18 8.372978277999332e-31
1.3400274889804893 4.21867776209962e-26 1.5005811760719502e-18 1.5005811760704786e-18 1.4717964901129178e-30
1.3808389325824078 4.3308138110318786e-26 1.587383894087741e-18 1.587383894085199e-18 2.5419166695409663e-30
1.4228933163050095 4.433523696474911e-26 1.6745218024602072e-18 1.6745218024558918e-18 4.315561637123133e-30
1.466228494730424 4.5292751154828283e-26 1.7627867993341753e-18 1.7627867993269692e-18 7.206078460177382e-30
1.5108834753276823 4.6162075416710613e-26 1.8513380644378606e-18 1.8513380644260204e-18 1.1839901242971971e-29
1.5568984535646726 4.692815083175777e-26 1.9393811129039266e-18 1.939381112884764e-18 1.9162222363940675e-29
1.6043148490894465 4.759235974020287e-26 2.026731768219185e-18 2.0267317681885795e-18 3.060515593092381e-29
1.6531753430134553 4.8156703592784456e-26 2.1132219026616083e-18 2.11322190261342e-18 4.81881867434849e-29
1.7035239163302658 4.862786060228335e-26 2.198886592766052e-18 2.1988865926912303e-18 7.482199269933892e-29
1.755405889504358 4.904448664678028e-26 2.285268204630747e-18 2.285268204516109e-18 1.1463825732521381e-28
1.8088679632656115 4.93970231591629e-26 2.3717946095772952e-18 2.37179460940389e-18 1.734053683229135e-28
1.8639582606462262 4.967899130960251e-26 2.4579802294434265e-18 2.4579802291843153e-18 2.5911093512460035e-28
1.9207263702978936 4.9895070713238025e-26 2.543856298320401e-18 2.543856297937689e-18 3.827115230711923e-28
1.979223391128241 5.0056168695019335e-26 2.6297947473636734e-18 2.629794746804531e-18 5.591423586913195e-28
2.039501978296691 5.017534265988013e-26 2.7163386369470975e-18 2.716338636138449e-18 8.086489625086092e-28
2.1016163906111602 5.0289184221718926e-26 2.8054172986415002e-18 2.8054172974828138e-18 1.1586861351248097e-27
2.1656225393682647 5.0418912192142015e-26 2.8983155523218135e-18 2.8983155506754323e-18 1.646379873803696e-27
2.231578038680979 5.056604783948685e-26 2.995301355619249e-18 2.9953013532972313e-18 2.3220173670162806e-27
2.299542257339062 5.0743305884703584e-26 3.097345023465937e-18 3.0973450202119215e-18 3.254015775209465e-27
2.369576372248914 5.0978801382584184e-26 3.2064890699059697e-18 3.2064890653698936e-18 4.536075656056788e-27
2.4417434235010123 5.130574542460365e-26 3.325335445592053e-18 3.3253354392948626e-18 6.2971904785895e-27
2.5161083711144245 5.178101555147585e-26 3.4583531517990155e-18 3.4583531430826086e-18 8.71640781557313e-27
2.5927381535095444 5.249768756099302e-26 3.613002528510949e-18 3.613002516467247e-18 1.204370261251083e-26
2.6717017477616296 5.356691812428515e-26 3.7988668196030245e-18 3.798866802974459e-18 1.6628565266282668e-26
2.753070231689431 5.51560703812734e-26 4.030695965724564e-18 4.0306959427639606e-18 2.296060335497249e-26
2.836916847834745 5.764414425863866e-26 4.340814587593391e-18 4.340814555864012e-18 3.172938012697241e-26
2.9233170693905177 6.186560226804493e-26 4.800589829271937e-18 4.800589785371448e-18 4.3900488748140383e-26
2.967498994190263 6.544991469141137e-26 5.155479903698028e-18 5.15547985207084e-18 5.162718943641521e-26
3.0123486681368425 6.963614666199249e-26 5.5681304677575794e-18 5.568130406995541e-18 6.076203982588491e-26
3.0578761833420214 7.899946657800854e-26 6.412294915315599e-18 6.412294843698059e-18 7.161753895088048e-26
3.1040917844459814 9.106468496162859e-26 7.503328782997909e-18 7.503328698540902e-18 8.44570073761512e-26
3.127460860933648 1.0382567004292559e-25 8.61918215276328e-18 8.619182060938994e-18 9.182428599571499e-26
3.1510058709225794 1.2082709260165264e-25 1.010608556173297e-17 1.0106085461847148e-17 9.988581757646842e-26
3.162844764501044 1.3665167329206919e-25 1.1472610883381629e-17 1.1472610779067699e-17 1.0431392792322907e-25
3.1747281389236908 1.5505399265064715e-25 1.3066489632786849e-17 1.3066489523842323e-17 1.0894452429433294e-25
3.1986289994194426 2.0638173764329616e-25 1.7522842930010485e-17 1.752284281101227e-17 1.1899821211123573e-25
3.2227097969389145 3.2736899560835646e-25 2.800452290835264e-17 2.800452277717494e-17 1.3117768773782076e-25
3.2348180950136065 4.421008819399997e-25 3.7961265170823816e-17 3.796126503214929e-17 1.3867451413598613e-25
3.240889293275058 5.278774448231567e-25 4.5411592801447576e-17 4.541159265831837e-17 1.4312921253193567e-25
3.2469718861334385 6.271076766297476e-25 5.4049300596084816e-17 5.404930044799445e-17 1.4809037065990343e-25
3.2714166318528037 1.1564170581668069e-24 1.0041989885767667e-16 1.0041989868718076e-16 1.7049586684826946e-25
3.2744851364798273 1.1895066189519107e-24 1.0339018667521319e-16 1.033901865022976e-16 1.7291558683528655e-25
3.2775565192852394 1.22354659328045e-24 1.064486442995655e-16 1.0644864412419234e-16 1.753731875939164e-25
3.283707930232385 1.190814420575003e-24 1.0379538403335901e-16 1.0379538385484999e-16 1.7850900074247667e-25
3.2898708863219004 1.0870050511043729e-24 9.492483463972742e-17 9.492483445949531e-17 1.8023214446844888e-25
3.29141343181113 1.062524210095075e-24 9.283050319459697e-17 9.283050301393204e-17 1.806649524229357e-25
3.292184975758714 1.0504951919627076e-24 9.180106735523797e-17 9.180106717435631e-17 1.8088166071033204e-25
3.295272960557952 9.745663630798484e-25 8.524565371488791e-17 8.524565353344248e-17 1.8144542999310152e-25
3.3076538914384823 7.115251361478911e-25 6.247118432838007e-17 6.247118414482618e-17 1.8355388189196759e-25
3.310756385682612 6.579894750440443e-25 5.782499518545062e-17 5.782499500136492e-17 1.8408570954744222e-25
3.313861789986515 6.085944814026269e-25 5.353426378101857e-17 5.353426359639913e-17 1.8461945013868895e-25
3.3200813396944477 5.39324127152368e-25 4.753002098906695e-17 4.7530020802507825e-17 1.865591145062605e-25
3.345076488085796 4.157571535722464e-25 3.6916049212724804e-17 3.6916049013014355e-17 1.9971045984431122e-25
3.3482140837626964 4.203921651466306e-25 3.736261505248572e-17 3.736261485049633e-17 2.019894030288973e-25
3.3513546224236106 4.25078423089147e-25 3.7814544973082297e-17 3.7814544768787266e-17 2.042950277113351e-25
3.3576445397418455 4.593209829881863e-25 4.0937416910987214e-17 4.093741670119745e-17 2.09789765051598e-25
3.3702598118196083 5.856184153436131e-25 5.23898964263821e-17 5.238989620365965e-17 2.227224579991548e-25
3.382922481734668 6.143882752223586e-25 5.51701796880971e-17 5.5170179454396055e-17 2.3370104534936707e-25
3.389271646505754 6.292930735552941e-25 5.661464170336409e-17 5.661464146396511e-17 2.3939897370669073e-25
3.395632727569191 6.453537319300221e-25 5.81685140456018e-17 5.816851380010539e-17 2.4549640859294697e-25
3.421196662673239 7.224701769708865e-25 6.560960108628377e-17 6.560960081427218e-17 2.7201158904855818e-25
3.4276182099114902 7.069351978504745e-25 6.431932527844105e-17 6.431932500146234e-17 2.7697871874695723e-25
3.4340518103208963 6.388504397947119e-25 5.82338460938306e-17 5.823384581288e-17 2.8095058207045916e-25
3.4469541582030403 5.418865726890164e-25 4.9580777236667554e-17 4.958077694920517e-17 2.874623821290804e-25
3.472904465399547 5.147221613877117e-25 4.744988202030862e-17 4.7449881709998e-17 3.103106162558808e-25
3.4990501388274233 4.73169841324582e-25 4.394775094581652e-17 4.394775061160027e-17 3.3421624323482864e-25
3.5253949054701885 3.252608271061359e-25 3.0437499236316473e-17 3.0437498882692735e-17 3.5362372695955223e-25
3.5519380250092896 1.862433773259316e-25 1.7559641743489768e-17 1.7559641371163142e-17 3.723266272835982e-25
3.578680990867387 1.3113085861743327e-25 1.2456537057986123e-17 1.2456536659131658e-17 3.9885446192245037e-25
3.605625307711299 1.088486099130416e-25 1.0417725587444236e-17 1.0417725157035785e-17 4.304084519328863e-25
3.660119384959845 9.261723687031556e-26 8.998217874624502e-18 8.998217370619476e-18 5.040050273274401e-25
3.715437065384467 8.113905377870241e-26 8.002197781469646e-18 8.002197191664938e-18 5.8980470636978825e-25
3.8285932144167436 7.539925311057562e-26 7.662592005900102e-18 7.662591196905753e-18 8.089943510396634e-25
3.94519561050918 7.44256421646579e-26 7.794002932209789e-18 7.794001825884253e-18 1.1063255351416304e-24
4.06534921144712 7.544854255997297e-26 8.141757167946774e-18 8.141755660903592e-18 1.50704318084758e-24
4.189162171576248 7.766822677372973e-26 8.636544124738482e-18 8.636542080830714e-18 2.0439077647831833e-24
4.316745939156006 8.080045968580996e-26 9.258481299940663e-18 9.258478541111302e-18 2.758829361791153e-24
4.448215356677963 8.476702871003626e-26 1.0008804319013424e-17 1.000880061433818e-17 3.704675239810566e-24
4.58368876423945 8.96087032155691e-26 1.0902717180706824e-17 1.0902712231444776e-17 4.949262047820679e-24
4.723288106065518 9.54558939763105e-26 1.1967863284723726e-17 1.196785670607482e-17 6.578648908995982e-24
4.867139040275056 1.0254191542921942e-25 1.3247825885420358e-17 1.3247817185602016e-17 8.699818338991028e-24
4.940699165968905 1.068074127771931e-25 1.400745510438262e-17 1.400744511635198e-17 9.98803064781402e-24
5.015371051989984 1.1127478262011262e-25 1.4813894810883687e-17 1.4813883359916877e-17 1.1450966812050076e-23
5.091171501069577 1.166567028799429e-25 1.576510463555717e-17 1.5765091515576477e-17 1.311998068649778e-23
5.129500256944802 1.1944048768801319e-25 1.6262827555750912e-17 1.626281351978602e-17 1.4035964890863966e-23
5.168117569889187 1.2234769595595513e-25 1.6784082791086475e-17 1.678406777939322e-17 1.5011693257524233e-23
5.20702561229733 1.2584237683272053e-25 1.7393463065372407e-17 1.7393447004856476e-17 1.6060515929197154e-23
5.246226572918644 1.2943893991316997e-25 1.8025255252304013e-17 1.8025238076011465e-17 1.7176292546890095e-23
5.265937586045735 1.3127651440462452e-25 1.8349835589711226e-17 1.8349817829234184e-17 1.7760477047317837e-23
5.285722656980489 1.3314088077739867e-25 1.8680359529041407e-17 1.8680341166191574e-17 1.836284982748674e-23
5.305582063971359 1.3503249723236034e-25 1.9016945803645127e-17 1.90169268197259e-17 1.8983919217099386e-23
5.3255160863122235 1.3705235687793468e-25 1.937392625811382e-17 1.9373906631366704e-17 1.9626747115743655e-23
5.365609099470188 1.4197490249368205e-25 2.0220879538906444e-17 2.0220858545834297e-17 2.0993072146372235e-23
5.406003951863644 1.4709238932920415e-25 2.1107460949872187e-17 2.1107438503673398e-17 2.244619878793058e-23
5.446702915881641 1.5241398790259e-25 2.203575562321791e-17 2.2035731632159017e-17 2.3991058898949266e-23
5.487708281020852 1.5814642703826594e-25 2.303667706739558e-17 2.3036651427842266e-17 2.5639553301790308e-23
5.529022354014368 1.6590118862399896e-25 2.4348223322695957e-17 2.4348195870087705e-17 2.745260824982767e-23
5.570647458961463 1.7410708921255235e-25 2.5744920954111187e-17 2.574489157139301e-17 2.9382718174381057e-23
5.612585937458331 1.8279545209939496e-25 2.7233146556668387e-17 2.7233115120027234e-17 3.1436641146869956e-23
5.654840148729818 1.923096472998238e-25 2.886628114807832e-17 2.886624751327283e-17 3.3634805490764996e-23
5.67608639626678 1.986668479720169e-25 2.9932557929867664e-17 2.9932523084751203e-17 3.484511646860444e-23
5.686739436050992 2.0194104610770197e-25 3.0482976007572984e-17 3.048294054238167e-17 3.546519131905841e-23
5.6974124697621304 2.0528096055581602e-25 3.104529321594234e-17 3.104525712053393e-17 3.60954084129772e-23
5.718818669136295 2.1216411781488736e-25 3.2206808810561374e-17 3.2206771423692564e-17 3.738686879957048e-23
5.740305295436557 2.197196379817959e-25 3.3479063307346375e-17 3.3479024566523485e-17 3.8740822895452e-23
5.7835210386641895 2.391044410002122e-25 3.670704255932132e-17 3.6707000810037334e-17 4.174928398270563e-23
5.827062130521658 2.6134345352882055e-25 4.042320160339506e-17 4.042315658640283e-17 4.5016992220467705e-23
5.8489554468988025 2.767839784434278e-25 4.297230938107901e-17 4.297226244432566e-17 4.6936753332927586e-23
5.870931020387893 2.9332766329806892e-25 4.57119168821354e-17 4.571186794909872e-17 4.893303666696474e-23
5.892989160043636 3.1106245271150796e-25 4.8657822225168973e-17 4.865777121652441e-17 5.1008644562916226e-23
5.915130176081913 3.3117681546101513e-25 5.199884120689296e-17 5.199878796723452e-17 5.323965841844967e-23
5.95966208400165 3.870691037990528e-25 6.123215943528793e-17 6.123210076262921e-17 5.867265872941655e-23
6.004529249263818 4.672300062860517e-25 7.446961761846668e-17 7.446955206756305e-17 6.555090363333447e-23
6.027089341400364 5.227726170034369e-25 8.363535280622227e-17 8.363528287119121e-17 6.993503104049744e-23
6.049734195844842 5.883116486752968e-25 9.447418940355506e-17 9.447411455717703e-17 7.484637805084818e-23
6.095279466722835 7.772024448276456e-25 1.2574687871315824e-16 1.257467905425798e-16 8.817057846062147e-23
6.141167624020661 1.0673360363304122e-24 1.7398890601693022e-16 1.7398879847482036e-16 1.0754210991435669e-22
6.164241091010745 1.2525556282570514e-24 2.0494912664527073e-16 2.049490063563355e-16 1.2028893523988041e-22
6.187401249150058 1.4633877591626646e-24 2.403461289279234e-16 2.4034599455740587e-16 1.3437051757215434e-22
6.1990139391386085 1.5663749765329253e-24 2.5774353606484737e-16 2.5774339444145734e-16 1.4162339003644778e-22
6.204828454712694 1.6206086646945462e-24 2.6691769675367716e-16 2.669175513574041e-16 1.4539627307190075e-22
6.210648424152782 1.6602676781556178e-24 2.7370610939847677e-16 2.7370596086520406e-16 1.4853327269432451e-22
6.233982942956859 1.7951465173319877e-24 2.9705368453955426e-16 2.9705352485787603e-16 1.5968167836696168e-22
6.239830258556775 1.8124913797608307e-24 3.002051640304919e-16 3.0020500280541116e-16 1.6122508069371916e-22
6.245683058788269 1.8141880605987666e-24 3.007680356650535e-16 3.0076787288279396e-16 1.6278225932572418e-22
6.257405133728602 1.8109293589342266e-24 3.007912626750908e-16 3.0079109716828266e-16 1.6550680810589205e-22
6.269149208991335 1.784993330976273e-24 2.9703979555338526e-16 2.9703962916552327e-16 1.6638786190011168e-22
6.280915325867298 1.7192990698131048e-24 2.86644623261365e-16 2.8664445828510247e-16 1.6497626260415403e-22
6.304513850009849 1.557057592385361e-24 2.6057077983061324e-16 2.6057061981338494e-16 1.6001722824929406e-22
6.32820103803542 1.3557666689364183e-24 2.277375548269463e-16 2.277374024409799e-16 1.523859663817726e-22
6.3519772230701035 1.1712127154404863e-24 1.97475919139249e-16 1.9747577397511285e-16 1.4516413619532525e-22
6.375842739491607 1.0159741931384911e-24 1.7194506126436852e-16 1.7194492244438475e-16 1.3881998378584656e-22
6.399797922933955 8.91806253663575e-25 1.5149775863297567e-16 1.514976240940482e-16 1.3453892742992215e-22
6.42384311029221 7.886389162260018e-25 1.344753126435313e-16 1.3447518172532454e-16 1.3091820673023005e-22
6.447978639727206 7.137307430456024e-25 1.2215955077747358e-16 1.2215942155076829e-16 1.2922670530611502e-22
6.472204850670314 6.514378729079404e-25 1.1191664727486744e-16 1.1191651925732511e-16 1.280175423351502e-22
6.496522083828205 6.112951619481238e-25 1.0541473243395686e-16 1.0541460394260072e-16 1.284913561826374e-22
