Dust emission spectrum from A.P. Jones, M. Kohler, N. Ysard, M. Bocchio, and L. Verstraete (2017), A&A, 602A, 46J 
inside the DustPedia framework.

lambda    nu*dP/dnu     j_nu    j_nu(carb.) j_nu(sil)
 (um)   (erg s-1 H-1) (Jy cm2 sr-1 H-1)
0.9927057738263894 2.4088824972707973e-22 6.3475422021029235e-15 6.347538076266696e-15 4.1258362256729845e-21
1.0001793341362166 2.449370911340834e-22 6.5028219912706655e-15 6.502817026634026e-15 4.9646366372026335e-21
1.0077091589558085 2.4900297024174848e-22 6.660535793206705e-15 6.660529827216025e-15 5.9659906793402115e-21
1.0114953028030835 2.5104213909811817e-22 6.740310918174961e-15 6.740304381420064e-15 6.5367548977217316e-21
1.0152956718711033 2.530853795948043e-22 6.820701210775679e-15 6.820694051048852e-15 7.15972682765562e-21
1.0229392996569957 2.571818523334364e-22 6.983282589951471e-15 6.9832740090199e-15 8.580931570282537e-21
1.0267826658714554 2.592304571592626e-22 7.065354986467637e-15 7.0653455967800255e-15 9.389687613982916e-21
1.0306404723013447 2.6128281029625883e-22 7.148048070076139e-15 7.148037798843367e-15 1.0271232773072871e-20
1.03451277320114 2.6333886256129095e-22 7.231364380970102e-15 7.231353149185648e-15 1.1231784455164317e-20
1.0383996230291617 2.6539856728179235e-22 7.315306530167467e-15 7.315294252106982e-15 1.2278060483852496e-20
1.0403485208654093 2.6642977543313274e-22 7.357513130264473e-15 7.357500294673987e-15 1.2835590484735627e-20
1.0423010764483396 2.6746188037298145e-22 7.399877202871937e-15 7.399863785555224e-15 1.3417316714498198e-20
1.0462171883269815 2.6952876041605966e-22 7.485079161923122e-15 7.485064504535864e-15 1.465738725987276e-20
1.0471985131304309 2.7004603316953718e-22 7.506478621625632e-15 7.506463637491929e-15 1.4984133702397924e-20
1.048180758391296 2.7056352584963285e-22 7.527917759314316e-15 7.527902441469614e-15 1.5317844700424285e-20
1.0501480137395462 2.715991687374141e-22 7.57091525133802e-15 7.570899244610531e-15 1.6006727490029352e-20
1.0521189612883777 2.7263568468730094e-22 7.61407200677672e-15 7.614055281579562e-15 1.6725197159127157e-20
1.0531058218030118 2.731535860057725e-22 7.635691140055803e-15 7.63567404412861e-15 1.7095927191920955e-20
1.0540936079674168 2.736694673347341e-22 7.657287611464381e-15 7.657270136869937e-15 1.7474594446053834e-20
1.058054026499678 2.7573505982660967e-22 7.744069958582693e-15 7.744050887534543e-15 1.9071048152114792e-20
1.0590464539527713 2.762519724538135e-22 7.765864900445772e-15 7.765845409008809e-15 1.9491436963377587e-20
1.06003981227728 2.7676909000878893e-22 7.787699681534708e-15 7.787679760856047e-15 1.9920678663541536e-20
1.0620293250338977 2.7780393825137e-22 7.831488958819883e-15 7.831468152387617e-15 2.080643226715534e-20
1.0660195594769086 2.798760764033503e-22 7.919547777667777e-15 7.919525085476444e-15 2.2692191333210952e-20
1.070024785945596 2.8195145125773863e-22 8.008249681498672e-15 8.008224940843077e-15 2.4740655591916836e-20
1.0740450607676866 2.840300430562241e-22 8.097598041712335e-15 8.097571076607567e-15 2.696510476710827e-20
1.07808044048254 2.861118353938823e-22 8.187596338992383e-15 8.187566959156317e-15 2.937983606642812e-20
1.0861967418109137 2.902818059990176e-22 8.369465918094128e-15 8.369431075229416e-15 3.4842864710942693e-20
1.0902777775684922 2.923627679548647e-22 8.461135658571021e-15 8.461097733041042e-15 3.792552997804456e-20
1.0943741465085532 2.94446776381667e-22 8.553464589399995e-15 8.553423322034801e-15 4.126736519502967e-20
1.1026131145906286 2.9862394584048466e-22 8.740116397560156e-15 8.740067585202058e-15 4.881235809767326e-20
1.1109141095355224 3.028133805820144e-22 8.929455502360216e-15 8.929397840961404e-15 5.766139881270435e-20
1.1192775983109025 3.0701195843243727e-22 9.12142174940365e-15 9.121353723361287e-15 6.8026042364151e-20
1.1277040513999907 3.112049231875557e-22 9.315604297126528e-15 9.315524147353851e-15 8.01497726792944e-20
1.1361939428280308 3.1541027810474354e-22 9.512567337501503e-15 9.512473025064094e-15 9.4312437409603e-20
1.1447477501889525 3.19628377516997e-22 9.712355310538532e-15 9.712244475299721e-15 1.1083523881104298e-19
1.1533659546722406 3.238611275511478e-22 9.91506085950162e-15 9.914930772971014e-15 1.3008653060601033e-19
1.1707974979042381 3.3238478141507035e-22 1.032981038468256e-14 1.0329631861631609e-14 1.7852305094998347e-19
1.1884924949847024 3.4097368293730605e-22 1.0756890238921657e-14 1.0756646474101794e-14 2.437648198620132e-19
1.2064549276569216 3.496891294397576e-22 1.1198572514220204e-14 1.1198241311343053e-14 3.3120287714907354e-19
1.2246888378427687 3.584811044275131e-22 1.1653636340959706e-14 1.1653188545267742e-14 4.477956919629151e-19
1.2431983285522175 3.6734867512205276e-22 1.2122392135400874e-14 1.2121789642366284e-14 6.024930345926752e-19
1.2619875648066055 3.7631181138862083e-22 1.2605856483871175e-14 1.2605049736568287e-14 8.067473028871584e-19
1.3004222497298317 3.9450730648251004e-22 1.3617860328696436e-14 1.3616434262000696e-14 1.4260666957369457e-18
1.3400274889804893 4.132080764512929e-22 1.4697786754281794e-14 1.4695312217234056e-14 2.4745370477384483e-18
1.3808389325824078 4.325991485803819e-22 1.585616355298709e-14 1.5851946543824054e-14 4.217009163039443e-18
1.4228933163050095 4.529932438349118e-22 1.7109349472336244e-14 1.7102288130370788e-14 7.061341965459054e-18
1.466228494730424 4.749257611043969e-22 1.8484036429509778e-14 1.8472412320478167e-14 1.1624109031611869e-17
1.5108834753276823 4.986442370132612e-22 1.9998213864124534e-14 1.9979394130373697e-14 1.8819733750838253e-17
1.5568984535646726 5.245029231672058e-22 2.1675924681119098e-14 2.1645925593497312e-14 2.9999087621789775e-17
1.6043148490894465 5.531000229236469e-22 2.355389380945489e-14 2.3506724719863188e-14 4.716908959170399e-17
1.6531753430134553 5.851651910209671e-22 2.5678333566958575e-14 2.5605262683069037e-14 7.307088388954199e-17
1.7035239163302658 6.216023969211393e-22 2.8108026133416913e-14 2.7996476111757446e-14 1.1155002165946762e-16
1.755405889504358 6.637772872134505e-22 3.0929248793035e-14 3.076134915701155e-14 1.6789963602344624e-16
1.8088679632656115 7.12824889196122e-22 3.422623716251783e-14 3.3976985966562266e-14 2.4925119595556993e-16
1.8639582606462262 7.700967172045489e-22 3.810227333021935e-14 3.773718032628033e-14 3.650930039390119e-16
1.9207263702978936 8.372893146971635e-22 4.2688459325975866e-14 4.21606094548268e-14 5.278498711490634e-16
1.979223391128241 9.164215986803681e-22 4.8145928252396416e-14 4.7392357751891424e-14 7.535705005049931e-16
2.039501978296691 1.0097834054754704e-21 5.4666565963170844e-14 5.3603900365790566e-14 1.0626655973802933e-15
2.1016163906111602 1.1202086798360914e-21 6.249162433506482e-14 6.101079268826181e-14 1.4808316468030137e-15
2.1656225393682647 1.2506744449883754e-21 7.189463312868156e-14 6.985478395133565e-14 2.039849177345905e-15
2.231578038680979 1.4041773199870346e-21 8.317704091563528e-14 8.039856653813711e-14 2.778474377498181e-15
2.299542257339062 1.5841225618935545e-21 9.669401802061507e-14 9.2950664235374e-14 3.743353785241074e-15
2.369576372248914 1.7942597176300786e-21 1.128562072296761e-13 1.0786622538494407e-13 4.989981844732037e-15
2.4417434235010123 2.0385528791693467e-21 1.321269594801513e-13 1.255435892417767e-13 6.58337023837458e-15
2.5161083711144245 2.3213411897189612e-21 1.5503785575400204e-13 1.464389006219585e-13 8.598955132043503e-15
2.5927381535095444 2.6472497341007004e-21 1.8218935780349354e-13 1.7106631018070276e-13 1.1123047622790765e-14
2.6717017477616296 3.0207857845056365e-21 2.1422854417835892e-13 1.9997605421936888e-13 1.4252489958990052e-14
2.753070231689431 3.4464880806883764e-21 2.5186249685156977e-13 2.337679138366544e-13 1.809458301491537e-14
2.836916847834745 3.929997043375894e-21 2.9594313029511963e-13 2.731757255931716e-13 2.276740470194803e-14
2.9233170693905177 4.478410690201102e-21 3.4751157383926224e-13 3.191185165755478e-13 2.8393057263714406e-14
2.967498994190263 4.776608438603238e-21 3.762527259074473e-13 3.4471235090376646e-13 3.154037500368092e-14
3.0123486681368425 5.0935996448595365e-21 4.072859963198035e-13 3.7229480449518896e-13 3.4991191824614534e-14
3.0578761833420214 5.4568461609630625e-21 4.4292586275947687e-13 4.041447292683322e-13 3.878113349114458e-14
3.1040917844459814 5.847484668277425e-21 4.81806970925256e-13 4.389110498711516e-13 4.289592105410425e-14
3.127460860933648 6.084172890113275e-21 5.050831298956177e-13 4.599878033999088e-13 4.50953264957089e-14
3.1510058709225794 6.345386855891151e-21 5.307338040430066e-13 4.833486398740431e-13 4.7385164168963435e-14
3.162844764501044 6.516969201953182e-21 5.471330865681407e-13 4.985639737988436e-13 4.8569112769296975e-14
3.1747281389236908 6.700834557169981e-21 5.646832034151814e-13 5.149068042690611e-13 4.9776399146120335e-14
3.1986289994194426 7.141267178525291e-21 6.063293415370782e-13 5.540609484711626e-13 5.226839306591575e-14
3.2227097969389145 7.938699313106317e-21 6.791097805803767e-13 6.242035567337969e-13 5.490622384657969e-14
3.2348180950136065 8.611033846129469e-21 7.393917374546725e-13 6.830785106288822e-13 5.6313226825790547e-14
3.240889293275058 9.09162075237699e-21 7.821227892213649e-13 7.250674011261761e-13 5.705538809518889e-14
3.2469718861334385 9.641206690123972e-21 8.309585385783102e-13 7.73135235051928e-13 5.782330352638216e-14
3.2714166318528037 1.2457035653005321e-20 1.0817327983074648e-12 1.0207383456038576e-12 6.099445270360706e-14
3.2744851364798273 1.2644375851475408e-20 1.0990307736391436e-12 1.0376632449193148e-12 6.136752871982862e-14
3.2775565192852394 1.2836106605878065e-20 1.116742226070035e-12 1.054999814857414e-12 6.17424112126212e-14
3.283707930232385 1.2720171351461357e-20 1.1087328534008999e-12 1.0463213193376344e-12 6.241153406326533e-14
3.2898708863219004 1.2250838710144579e-20 1.0698283670135261e-12 1.0068090777621735e-12 6.301928925135258e-14
3.29141343181113 1.2140467081020125e-20 1.060687048295768e-12 9.9751517865279e-13 6.317186964297785e-14
3.292184975758714 1.208628222961731e-20 1.0562005590549174e-12 9.929523028889839e-13 6.324825616593336e-14
3.295272960557952 1.1737370044528167e-20 1.026671779618325e-12 9.631266180161135e-13 6.35451616022113e-14
3.3076538914384823 1.0529067695620763e-20 9.244414503473e-13 8.597043639317194e-13 6.473708641558079e-14
3.310756385682612 1.0283985704188755e-20 9.037704194161343e-13 8.387330198796357e-13 6.503739953649856e-14
3.313861789986515 1.0058285432898846e-20 8.847646865094615e-13 8.194260400737005e-13 6.533864643576094e-14
3.3200813396944477 9.758708635922657e-21 8.600238760698954e-13 7.940367253459295e-13 6.598715072396595e-14
3.345076488085796 9.356131758692273e-21 8.307528023918958e-13 7.618741756058666e-13 6.887862678602932e-14
3.3482140837626964 9.407557820776202e-21 8.361025503866479e-13 7.668321646816741e-13 6.92703857049739e-14
3.3513546224236106 9.459287048590021e-21 8.414885726561242e-13 7.718247270451519e-13 6.96638456109723e-14
3.3576445397418455 9.689020175959024e-21 8.635430844499495e-13 7.930563952656075e-13 7.048668918434198e-14
3.3702598118196083 1.0433235245266726e-20 9.333656517117659e-13 8.611531207364158e-13 7.221253097535001e-14
3.382922481734668 1.0694220517473026e-20 9.603081493695316e-13 8.864200496696101e-13 7.388809969992162e-14
3.389271646505754 1.0827482443362678e-20 9.740994535618088e-13 8.993624423739579e-13 7.473701118785115e-14
3.395632727569191 1.0970585577244493e-20 9.88826173407205e-13 9.132143071016054e-13 7.561186630559968e-14
3.421196662673239 1.1625373943515238e-20 1.0557337468390041e-12 9.765024641014442e-13 7.923128273756007e-14
3.4276182099114902 1.1599733647300297e-20 1.0553825072970716e-12 9.7534559218859e-13 8.003691510848184e-14
3.4340518103208963 1.1301122725863156e-20 1.0301438341607507e-12 9.493459528713245e-13 8.079788128942606e-14
3.4469541582030403 1.0898208539405214e-20 9.971489922506258e-13 9.148926045807272e-13 8.225638766989842e-14
3.472904465399547 1.0968478556161557e-20 1.0111338746888003e-12 9.255145861292109e-13 8.561928855958935e-14
3.4990501388274233 1.0970671014588166e-20 1.018949804805662e-12 9.298938631504433e-13 8.905594165521871e-14
3.5253949054701885 1.0438735239802452e-20 9.76843718674794e-13 8.844565571218094e-13 9.23871615529849e-14
3.5519380250092896 9.941177794103215e-21 9.37287129771583e-13 8.41557816053779e-13 9.572931371780419e-14
3.578680990867387 9.889430627069245e-21 9.394284487060747e-13 8.400368330504664e-13 9.939161565560851e-14
3.605625307711299 1.0014286195227342e-20 9.584512436066467e-13 8.552062026781098e-13 1.0324504092853655e-13
3.660119384959845 1.0420034248508682e-20 1.0123573278310745e-12 9.010333766538097e-13 1.1132395117726495e-13
3.715437065384467 1.0859083417824081e-20 1.0709581784365655e-12 9.511420611301898e-13 1.1981611730637583e-13
3.8285932144167436 1.1858535038638756e-20 1.20514609946467e-12 1.0671645996148875e-12 1.3798149984978232e-13
3.94519561050918 1.2918399522712727e-20 1.3528407794819507e-12 1.1951805623909294e-12 1.5766021709102176e-13
4.06534921144712 1.4017477733654323e-20 1.5126455189481825e-12 1.3338477850631867e-12 1.7879773388499602e-13
4.189162171576248 1.514436527302668e-20 1.6840216952898394e-12 1.4826204193003342e-12 2.0140127598950555e-13
4.316745939156006 1.6288485549681295e-20 1.8664081795138895e-12 1.6410591384955024e-12 2.253490410183869e-13
4.448215356677963 1.7437827576924957e-20 2.0589586142409356e-12 1.8086932654294229e-12 2.5026534881151245e-13
4.58368876423945 1.8584178140095735e-20 2.26114240053118e-12 1.9849967989103332e-12 2.761456016208473e-13
4.723288106065518 1.97204726991072e-20 2.4724709113469013e-12 2.1693521806437563e-12 3.031187307031448e-13
4.867139040275056 2.083299322481224e-20 2.6915029406190542e-12 2.3611042255743555e-12 3.3039871504469857e-13
4.940699165968905 2.1380196781155916e-20 2.803945332517751e-12 2.4597152024123176e-12 3.442301301054326e-13
5.015371051989984 2.1917102608328936e-20 2.9178008256153158e-12 2.5596611990651485e-12 3.58139626550167e-13
5.091171501069577 2.245064855702704e-20 3.03400331828258e-12 2.6615636159622463e-12 3.724397023203332e-13
5.129500256944802 2.271266217759831e-20 3.0925200949541727e-12 2.7129197275321755e-12 3.7960036742199624e-13
5.168117569889187 2.297237736194209e-20 3.1514306872580675e-12 2.764587094521186e-12 3.8684359273688247e-13
5.20702561229733 2.3237846254067673e-20 3.2118482717169663e-12 2.8170586819522436e-12 3.94789589764722e-13
5.246226572918644 2.3499913081139897e-20 3.272523183353155e-12 2.8697611261680238e-12 4.0276205718513134e-13
5.265937586045735 2.362962614963846e-20 3.3029499363134544e-12 2.89619297015699e-12 4.0675696615646475e-13
5.285722656980489 2.375843558554467e-20 3.333432346204561e-12 2.922675361603935e-12 4.1075698460062516e-13
5.305582063971359 2.388632407635572e-20 3.3639674872242633e-12 2.9492058842161436e-12 4.147616030081197e-13
5.3255160863122235 2.401434503518355e-20 3.394703750063367e-12 2.9758984327692e-12 4.188053172941672e-13
5.365609099470188 2.4275732028152537e-20 3.4574889254239125e-12 3.030314517333151e-12 4.27174408090761e-13
5.406003951863644 2.4533483396714256e-20 3.5205053444438852e-12 3.0849370810655772e-12 4.35568263378308e-13
5.446702915881641 2.4787479745390134e-20 3.583731740776785e-12 3.139748946601616e-12 4.4398279417516976e-13
5.487708281020852 2.5039465181188513e-20 3.647417675644127e-12 3.1949643419512564e-12 4.5245333369287115e-13
5.529022354014368 2.5303778909650688e-20 3.713668750117531e-12 3.252386206268464e-12 4.612825438490676e-13
5.570647458961463 2.5564768072773123e-20 3.780219037722438e-12 3.310083476317761e-12 4.701355614046774e-13
5.612585937458331 2.5822381687734528e-20 3.847057992241109e-12 3.368049768732546e-12 4.790082235085631e-13
5.654840148729818 2.6079275290005332e-20 3.914581006358672e-12 3.426636449830993e-12 4.879445565276783e-13
5.67608639626678 2.6218236459006843e-20 3.9502256649218626e-12 3.457598711617286e-12 4.926269533045771e-13
5.686739436050992 2.628753831222898e-20 3.968100666579985e-12 3.473129970419678e-12 4.949706961603064e-13
5.6974124697621304 2.6356723831831743e-20 3.986011256744624e-12 3.4886952095343575e-12 4.973160472102666e-13
5.718818669136295 2.6494755044156182e-20 4.021940745580301e-12 3.51992943720807e-12 5.020113083722298e-13
5.740305295436557 2.663562954023686e-20 4.058517189448931e-12 3.5517668219901706e-12 5.0675036745876e-13
5.7835210386641895 2.694248445453711e-20 4.136179651826999e-12 3.619639042760844e-12 5.16540609066155e-13
5.827062130521658 2.725697428664902e-20 4.21596237369023e-12 3.689508571304272e-12 5.264538023859573e-13
5.8489554468988025 2.7443094760537973e-20 4.260698776916898e-12 3.728869483582687e-12 5.318292933342097e-13
5.870931020387893 2.763144285302805e-20 4.306058981377389e-12 3.7688399450447805e-12 5.372190363326098e-13
5.892989160043636 2.782226259015248e-20 4.352086519002508e-12 3.809464020466905e-12 5.426224985356041e-13
5.915130176081913 2.802529971889832e-20 4.4003174190498884e-12 3.852086549325591e-12 5.482308697242988e-13
5.95966208400165 2.852951056602075e-20 4.513208423104291e-12 3.952068395570563e-12 5.61140027533729e-13
6.004529249263818 2.9168216426877627e-20 4.648986355110945e-12 4.073246643059159e-12 5.757397120517864e-13
6.027089341400364 2.957870258273268e-20 4.732124724200889e-12 4.147884593641532e-12 5.842401305593561e-13
6.049734195844842 3.003681837202208e-20 4.823470815762808e-12 4.230212497364884e-12 5.932583183979239e-13
6.095279466722835 3.128155764760741e-20 5.0611758386126424e-12 4.445530869627798e-12 6.156449689848447e-13
6.141167624020661 3.305878132096627e-20 5.388988097940751e-12 4.744016101802339e-12 6.449719961384116e-13
6.164241091010745 3.417338768452198e-20 5.5916127016242166e-12 4.928103470851583e-12 6.635092307726335e-13
6.187401249150058 3.537350371333584e-20 5.809727893981078e-12 5.127209270078977e-12 6.825186239020993e-13
6.1990139391386085 3.5954153727186414e-20 5.916176430739443e-12 5.2239900014454685e-12 6.921864292939737e-13
6.204828454712694 3.625410931202914e-20 5.9711289753265405e-12 5.2740621575752335e-12 6.970668177513071e-13
6.210648424152782 3.647402750464057e-20 6.012984709476754e-12 5.311788835557758e-12 7.011958739189986e-13
6.233982942956859 3.720216398268006e-20 6.1560656900163605e-12 5.440596918726011e-12 7.154687712903512e-13
6.239830258556775 3.728551543381346e-20 6.175645524033571e-12 5.458288948348782e-12 7.173565756847922e-13
6.245683058788269 3.728722897459452e-20 6.181722202702874e-12 5.462475766989272e-12 7.192464357136037e-13
6.257405133728602 3.725263298143446e-20 6.187577918032077e-12 5.465077790545786e-12 7.225001274862902e-13
6.269149208991335 3.7090838099233115e-20 6.172266738875768e-12 5.448833384998335e-12 7.234333538774332e-13
6.280915325867298 3.671226745832274e-20 6.1207350480363645e-12 5.399234346374719e-12 7.215007016616445e-13
6.304513850009849 3.578796136124917e-20 5.989050787879019e-12 5.274003044639469e-12 7.150477432395497e-13
6.32820103803542 3.468795169272412e-20 5.826776451624582e-12 5.120934294633645e-12 7.058421569909349e-13
6.3519772230701035 3.369857847878482e-20 5.681852383477045e-12 4.98433441877446e-12 6.975179647025841e-13
6.375842739491607 3.2848412845356264e-20 5.559316759497786e-12 4.869216055792467e-12 6.901007037053193e-13
6.399797922933955 3.2219788636811575e-20 5.473415040602043e-12 4.787476068402965e-12 6.859389721990792e-13
6.42384311029221 3.168692609243843e-20 5.403118214587338e-12 4.720689510376274e-12 6.824287042110634e-13
6.447978639727206 3.132871407991185e-20 5.36210843616893e-12 4.6806587726845454e-12 6.814496634843843e-13
6.472204850670314 3.102932615229855e-20 5.330820166567703e-12 4.64984938633341e-12 6.809707802342935e-13
6.496522083828205 3.086200569340853e-20 5.321995453355149e-12 4.639459315881801e-12 6.825361374733472e-13
6.520930681187647 3.072481883096095e-20 5.31824508486431e-12 4.633840379879418e-12 6.84404704984891e-13
6.57002334288761 3.063479872298795e-20 5.3425842180103384e-12 4.651635231099283e-12 6.90948986911056e-13
