Dust emission spectrum from A.P. Jones, M. Kohler, N. Ysard, M. Bocchio, and L. Verstraete (2017), A&A, 602A, 46J 
inside the DustPedia framework.

lambda    nu*dP/dnu     j_nu    j_nu(carb.) j_nu(sil)
 (um)   (erg s-1 H-1) (Jy cm2 sr-1 H-1)
0.9927057738263894 1.380404718596521e-26 3.637444838924585e-19 3.637444838920782e-19 3.802162827333535e-31
1.0001793341362166 1.403210425148169e-26 3.725376001153972e-19 3.7253760011493893e-19 4.581080825141836e-31
1.0077091589558085 1.425983610041186e-26 3.814337983994458e-19 3.8143379839889466e-19 5.512544839942833e-31
1.0114953028030835 1.4373552021785812e-26 3.859201087652177e-19 3.8592010876461327e-19 6.044162254276176e-31
1.0152956718711033 1.4487153071498078e-26 3.904316505902505e-19 3.9043165058958805e-19 6.624926026915786e-31
1.0229392996569957 1.4713854713997657e-26 3.995266560337176e-19 3.9952665603292243e-19 7.951671734598919e-31
1.0267826658714554 1.482668037112345e-26 4.0410282511101865e-19 4.0410282511014784e-19 8.707692376730696e-31
1.0306404723013447 1.493934127237804e-26 4.0870323397528025e-19 4.0870323397432705e-19 9.532529255958024e-31
1.03451277320114 1.50518265456206e-26 4.1332768468690334e-19 4.133276846858601e-19 1.0432143391370457e-30
1.0383996230291617 1.516412537900721e-26 4.17975976831658e-19 4.179759768305166e-19 1.1412983856440098e-30
1.0403485208654093 1.5220201519051848e-26 4.203090001470205e-19 4.2030900014582687e-19 1.1936021915393854e-30
1.0423010764483396 1.527622702306398e-26 4.2264790756808983e-19 4.2264790756684163e-19 1.2482025240035022e-30
1.0462171883269815 1.5388120792714538e-26 4.273432716749901e-19 4.273432716736255e-19 1.3646807774889097e-30
1.0471985131304309 1.5416060508886228e-26 4.2852074989374654e-19 4.285207498923511e-19 1.3953903889726105e-30
1.048180758391296 1.5443986403648405e-26 4.2969967647171455e-19 4.296996764702878e-19 1.4267623478369797e-30
1.0501480137395462 1.54997960692615e-26 4.3206186159890035e-19 4.3206186159740876e-19 1.4915480307214443e-30
1.0521189612883777 1.5555548472905978e-26 4.344298007557504e-19 4.344298007541913e-19 1.5591499508456274e-30
1.0531058218030118 1.5583359985734853e-26 4.356147232599801e-19 4.35614723258386e-19 1.59404547466279e-30
1.0540936079674168 1.561101644693665e-26 4.367971480548241e-19 4.367971480531944e-19 1.6296966943722716e-30
1.058054026499678 1.5721485159543896e-26 4.415408073419696e-19 4.415408073401895e-19 1.7800973961655236e-30
1.0590464539527713 1.5749062246716145e-26 4.427301953008016e-19 4.42730195298982e-19 1.8197267553186363e-30
1.06003981227728 1.5776622975354554e-26 4.439209657298084e-19 4.43920965727948e-19 1.860200967612045e-30
1.0620293250338977 1.5831694715125366e-26 4.463066403641956e-19 4.463066403622519e-19 1.9437528803574656e-30
1.0660195594769086 1.5941634848185702e-26 4.510944288514007e-19 4.51094428849279e-19 2.1217719340644897e-30
1.070024785945596 1.6051295370806463e-26 4.559039524978288e-19 4.559039524955134e-19 2.3153507656505895e-30
1.0740450607676866 1.616066617432138e-26 4.607349890097617e-19 4.607349890072359e-19 2.5257794449658746e-30
1.07808044048254 1.6269737230945752e-26 4.655873141531278e-19 4.655873141503735e-19 2.7544487818569537e-30
1.0861967418109137 1.6486747653606468e-26 4.753493664964474e-19 4.753493664931749e-19 3.2726213765894e-30
1.0902777775684922 1.6594229059698914e-26 4.802459088949043e-19 4.802459088913388e-19 3.5654797176945684e-30
1.0943741465085532 1.6701363783477576e-26 4.851624645789718e-19 4.851624645750886e-19 3.883304080555291e-30
1.1026131145906286 1.6914555095745063e-26 4.950546746466373e-19 4.950546746420353e-19 4.602063866118192e-30
1.1109141095355224 1.7126246334055716e-26 5.050240985668433e-19 5.050240985613965e-19 5.4469206220678124e-30
1.1192775983109025 1.7336167194399313e-26 5.150629744381472e-19 5.150629744317085e-19 6.43870253484349e-30
1.1277040513999907 1.7543342614077053e-26 5.251421994476795e-19 5.25142199440078e-19 7.601451641166115e-30
1.1361939428280308 1.7748773308991133e-26 5.352913743786093e-19 5.352913743696463e-19 8.962878476518639e-30
1.1447477501889525 1.7952390759030158e-26 5.455085029678173e-19 5.455085029572623e-19 1.0554883453038614e-29
1.1533659546722406 1.815423900383252e-26 5.557949666327578e-19 5.557949666203436e-19 1.2414158713714087e-29
1.1707974979042381 1.8553279719973828e-26 5.7659637936906e-19 5.765963793519507e-19 1.7109357354335065e-29
1.1884924949847024 1.894438386338109e-26 5.976492264942864e-19 5.97649226470822e-19 2.3464410436871687e-29
1.2064549276569216 1.9330609539195163e-26 6.190505064185786e-19 6.190505063865549e-19 3.2023924109083133e-29
1.2246888378427687 1.9707738407835907e-26 6.406664498382893e-19 6.406664497947941e-19 4.349529956005933e-29
1.2431983285522175 2.0074887946162315e-26 6.624650644969828e-19 6.624650644381884e-19 5.879428547768305e-29
1.2619875648066055 2.043192054946388e-26 6.844373478099875e-19 6.844373477308874e-19 7.910027760420819e-29
1.3004222497298317 2.1109699198240503e-26 7.286783553530429e-19 7.286783552118538e-19 1.4118905855654402e-28
1.3400274889804893 2.1738419519474978e-26 7.732342920698505e-19 7.732342918223877e-19 2.474629100307451e-28
1.3808389325824078 2.2315747426569314e-26 8.179446079910298e-19 8.179446075649368e-19 4.260931322665604e-28
1.4228933163050095 2.2844489128406782e-26 8.628259986971022e-19 8.628259979760004e-19 7.211019035479822e-28
1.466228494730424 2.333736432344088e-26 9.082865737165198e-19 9.082865725164611e-19 1.2000585654112905e-27
1.5108834753276823 2.3784789513690795e-26 9.53893120788891e-19 9.538931188241147e-19 1.96477641042493e-27
1.5568984535646726 2.4179009464147014e-26 9.992363528579199e-19 9.9923634968997e-19 3.167949958421567e-27
1.6043148490894465 2.452074070382368e-26 1.0442214766401676e-18 1.0442214716006599e-18 5.039507885683873e-27
1.6531753430134553 2.4811018549247098e-26 1.0887619773349361e-18 1.0887619694344599e-18 7.90047665971582e-27
1.7035239163302658 2.5053287824257203e-26 1.1328760512832717e-18 1.132876039074241e-18 1.2209030459691349e-26
1.755405889504358 2.5267468913564452e-26 1.177358501793095e-18 1.1773584831854375e-18 1.860765707188531e-26
1.8088679632656115 2.5448639606871035e-26 1.2219146495157919e-18 1.2219146215361642e-18 2.797962774897791e-26
1.8639582606462262 2.5593465104887294e-26 1.2662944551091073e-18 1.2662944135843068e-18 4.1524800519786034e-26
1.9207263702978936 2.5704359266169388e-26 1.3105141505729286e-18 1.3105140897235063e-18 6.084942229053578e-26
1.979223391128241 2.5786944443875253e-26 1.3547655127630582e-18 1.3547654246864897e-18 8.807656862379873e-26
2.039501978296691 2.5847950380959203e-26 1.3993284865363123e-18 1.399328360562757e-18 1.2597355559664434e-25
2.1016163906111602 2.5906230471861234e-26 1.4451971777455267e-18 1.4451969996314444e-18 1.7811408235102131e-25
2.1656225393682647 2.597271797384918e-26 1.4930336488181432e-18 1.493033399776099e-18 2.490420445096201e-25
2.231578038680979 2.604819857829774e-26 1.5429761242302854e-18 1.5429757797658096e-18 3.4446447562883443e-25
2.299542257339062 2.613922437478142e-26 1.5955246731154454e-18 1.5955242016457738e-18 4.714696716920941e-25
2.369576372248914 2.6260281204718604e-26 1.6517317467639329e-18 1.6517311079868108e-18 6.38777121746333e-25
2.4417434235010123 2.642848034382443e-26 1.7129380293207414e-18 1.7129371723400746e-18 8.569806668705169e-25
2.5161083711144245 2.667312506431431e-26 1.781446059952209e-18 1.7814449210958146e-18 1.1388563943532183e-24
2.5927381535095444 2.7042167454369873e-26 1.861099487011514e-18 1.861097987358399e-18 1.4996531153903714e-24
2.6717017477616296 2.7592876726945756e-26 1.95683581445147e-18 1.956833857140837e-18 1.9573106327602805e-24
2.753070231689431 2.841147908200051e-26 2.0762544054438013e-18 2.0762518726782095e-18 2.5327655933447033e-24
2.836916847834745 2.969323400818143e-26 2.2360089648866977e-18 2.2360057145320728e-18 3.2503546252991564e-24
2.9233170693905177 3.1868051478722725e-26 2.4728676065357155e-18 2.472863469057293e-18 4.137478423374463e-24
2.967498994190263 3.371464837387942e-26 2.6556977647915803e-18 2.6556931174641953e-18 4.647327385100427e-24
3.0123486681368425 3.58713666915261e-26 2.8682869367355064e-18 2.8682817234403437e-18 5.213295162460701e-24
3.0578761833420214 4.069525727751801e-26 3.3031867507663743e-18 3.303180908509604e-18 5.84225677054285e-24
3.1040917844459814 4.6911234378442934e-26 3.865279008059469e-18 3.865272472513207e-18 6.5355462618529256e-24
3.127460860933648 5.348559637562351e-26 4.440155286453516e-18 4.440148376125444e-18 6.91032807279564e-24
3.1510058709225794 6.224465766530756e-26 5.206198565087148e-18 5.206191261443744e-18 7.303643405143766e-24
3.162844764501044 7.03973120704179e-26 5.91021645884787e-18 5.910208950575682e-18 7.508272186708986e-24
3.1747281389236908 7.98780676649786e-26 6.7313709578773165e-18 6.73136324008606e-18 7.717791257978258e-24
3.1986289994194426 1.0632197529056629e-25 9.027268082436202e-18 9.027259929458595e-18 8.152977603799106e-24
3.2227097969389145 1.6865403383836725e-25 1.442737650043997e-17 1.4427367882881773e-17 8.617558199151242e-24
3.2348180950136065 2.2776336968792457e-25 1.955704235418627e-17 1.9557033487474756e-17 8.86671150286224e-24
3.240889293275058 2.7195498674857906e-25 2.339540974834958e-17 2.3395400749924636e-17 8.998424939623361e-24
3.2469718861334385 3.2307779315364895e-25 2.784550310710221e-17 2.784549397218256e-17 9.134919648008134e-24
3.2714166318528037 5.95774976537616e-25 5.1735368709177477e-17 5.173535900702179e-17 9.702155693550508e-24
3.2744851364798273 6.1282234330296185e-25 5.3265627499123926e-17 5.326561772964764e-17 9.769476276473209e-24
3.2775565192852394 6.303593513011751e-25 5.484131028280622e-17 5.484130044560194e-17 9.837204286685664e-24
3.283707930232385 6.134954148734575e-25 5.3474320674373024e-17 5.347431071553403e-17 9.958838997998981e-24
3.2898708863219004 5.600129436044594e-25 4.89042217547672e-17 4.890421168473665e-17 1.007003055541077e-23
3.29141343181113 5.474004560678897e-25 4.782522534821779e-17 4.782521525023567e-17 1.0097982115825227e-23
3.292184975758714 5.412031285567095e-25 4.729486173532505e-17 4.729485162334406e-17 1.0111981010186717e-23
3.295272960557952 5.020847562820014e-25 4.391752567191018e-17 4.391751550541752e-17 1.0166492669477386e-23
3.3076538914384823 3.6656696716598345e-25 3.218420743151601e-17 3.218419704556695e-17 1.0385949054205542e-23
3.310756385682612 3.389857222619506e-25 2.979051869548778e-17 2.979050825409792e-17 1.044138985786481e-23
3.313861789986515 3.1353776516212576e-25 2.7579963240573423e-17 2.757995274351082e-17 1.0497062601875769e-23
3.3200813396944477 2.7785011410648945e-25 2.448661406087087e-17 2.448660344413503e-17 1.0616735853498004e-23
3.345076488085796 2.141888635431821e-25 1.9018329713486703e-17 1.901831856218289e-17 1.1151303810326815e-23
3.3482140837626964 2.165766917392047e-25 1.924838813294812e-17 1.924837690899861e-17 1.1223949508521427e-23
3.3513546224236106 2.18990920373865e-25 1.948120995413948e-17 1.9481198657142256e-17 1.1296997221831491e-23
3.3576445397418455 2.3663211787177934e-25 2.109006124829279e-17 2.1090049798397627e-17 1.1449895157532204e-23
3.3702598118196083 3.0169877083512883e-25 2.6990215713665692e-17 2.699020394214715e-17 1.1771518540732671e-23
3.382922481734668 3.165200367521278e-25 2.842252693734755e-17 2.842251485186981e-17 1.2085477739787473e-23
3.389271646505754 3.2419848216539188e-25 2.916666602553252e-17 2.9166653780402335e-17 1.2245130182684e-23
3.395632727569191 3.324723294523865e-25 2.9967164376175226e-17 2.9967151966361197e-17 1.2409814023290244e-23
3.421196662673239 3.721996055536883e-25 3.3800519970575495e-17 3.380050687578967e-17 1.3094785819853135e-23
3.4276182099114902 3.64195917883345e-25 3.313576092779852e-17 3.313574767827147e-17 1.324952705692849e-23
3.4340518103208963 3.291196282615861e-25 3.000060825629659e-17 3.0000594859638353e-17 1.339665823617353e-23
3.4469541582030403 2.7916534854289704e-25 2.5542679327921616e-17 2.5542665647071366e-17 1.368085025451674e-23
3.472904465399547 2.6517024746788576e-25 2.4444832380492113e-17 2.4444818043911583e-17 1.4336580518337955e-23
3.4990501388274233 2.4376281469232795e-25 2.2640554266857716e-17 2.2640539253188516e-17 1.501366920065557e-23
3.5253949054701885 1.6756274481001962e-25 1.5680310975553845e-17 1.568029529706271e-17 1.5678491129392575e-23
3.5519380250092896 9.594433041344996e-26 9.045948873826693e-18 9.045932520049298e-18 1.6353777392223926e-23
3.578680990867387 6.755188363529582e-26 6.416968139396899e-18 6.4169510406506325e-18 1.7098746266896245e-23
3.605625307711299 5.607273027225476e-26 5.366630932464835e-18 5.366613042256116e-18 1.7890208719044456e-23
3.660119384959845 4.771086481354564e-26 4.635344036231307e-18 4.635324457735241e-18 1.9578496066363148e-23
3.715437065384467 4.1797922919970295e-26 4.122247308582978e-18 4.122225913667032e-18 2.139491594644829e-23
3.8285932144167436 3.884141012237413e-26 3.9473319220432165e-18 3.94730648900482e-18 2.5433038396785368e-23
3.94519561050918 3.834039360173826e-26 4.0150831281093995e-18 4.0150530790979915e-18 3.004901140721373e-23
4.06534921144712 3.8868023458292334e-26 4.1943024723629365e-18 4.194267167570548e-18 3.5304792389059863e-23
4.189162171576248 4.0012315064049823e-26 4.449285620880023e-18 4.449244335276065e-18 4.128560395789429e-23
4.316745939156006 4.162685167504606e-26 4.769792514887154e-18 4.7697444507873215e-18 4.806409983362014e-23
4.448215356677963 4.367135337234192e-26 5.156462800476876e-18 5.156407133071219e-18 5.566740565593905e-23
4.58368876423945 4.616683630977374e-26 5.6171325033302806e-18 5.617068282773635e-18 6.422055664527257e-23
4.723288106065518 4.918049466046948e-26 6.166046032921282e-18 6.1659721285384935e-18 7.390438278903542e-23
4.867139040275056 5.283252922044821e-26 6.825659002654431e-18 6.825574298327565e-18 8.470432686820074e-23
4.940699165968905 5.503079806488478e-26 7.217115490478576e-18 7.217024888213468e-18 9.060226510727106e-23
5.015371051989984 5.733313076813832e-26 7.632699416519253e-18 7.632602565187388e-18 9.685133186342607e-23
5.091171501069577 6.010661280608417e-26 8.12286835461178e-18 8.122764782868472e-18 1.0357174331147303e-22
5.129500256944802 6.154120106221604e-26 8.379352427485574e-18 8.379245346577884e-18 1.0708090769110233e-22
5.168117569889187 6.303938596858779e-26 8.647962390537626e-18 8.647851678426706e-18 1.1071211091995106e-22
5.20702561229733 6.48401863259696e-26 8.961968252648078e-18 8.961853636374534e-18 1.1461627354392222e-22
5.246226572918644 6.669349011370877e-26 9.287523397310353e-18 9.287404755199762e-18 1.1864211059363377e-22
5.265937586045735 6.7640390985409e-26 9.454776122257527e-18 9.454655420428753e-18 1.2070182877443104e-22
5.285722656980489 6.860109858976915e-26 9.625091694313343e-18 9.624968900924376e-18 1.2279338896857767e-22
5.305582063971359 6.957584903371547e-26 9.798531297543674e-18 9.798406380259675e-18 1.2491728399908766e-22
5.3255160863122235 7.061666066517973e-26 9.982476824823618e-18 9.982349740877567e-18 1.2708394605270002e-22
5.365609099470188 7.315302185185493e-26 1.0418872749986042e-17 1.0418741153511885e-17 1.3159647415575222e-22
5.406003951863644 7.578982262910765e-26 1.0875686558883126e-17 1.0875550304930985e-17 1.3625395213968674e-22
5.446702915881641 7.853178745748784e-26 1.1353992510016103e-17 1.1353851448902552e-17 1.410611135515571e-22
5.487708281020852 8.148539657157456e-26 1.1869713414858376e-17 1.1869567377741594e-17 1.4603711677939945e-22
5.529022354014368 8.548067328610917e-26 1.2545434666304251e-17 1.2545283365450826e-17 1.5130085342497152e-22
5.570647458961463 8.970835546033731e-26 1.3265022870092213e-17 1.3264866128869489e-17 1.5674122272410269e-22
5.612585937458331 9.418457830273253e-26 1.4031762797367833e-17 1.403160043295383e-17 1.6236441400526596e-22
5.654840148729818 9.908620228984389e-26 1.4873149700777467e-17 1.4872981502785083e-17 1.6819799238430002e-22
5.67608639626678 1.0236119231839599e-25 1.542246404026243e-17 1.5422292759050643e-17 1.7128121178362605e-22
5.686739436050992 1.0404793113607965e-25 1.5706022374307956e-17 1.570584953116345e-17 1.7284314450561514e-22
5.6974124697621304 1.057685213376751e-25 1.5995710216155e-17 1.5995535797359456e-17 1.7441879554623867e-22
5.718818669136295 1.093144388935863e-25 1.6594084192649874e-17 1.659390658088031e-17 1.7761176956138438e-22
5.740305295436557 1.132066816977195e-25 1.724949894413431e-17 1.7249318059450434e-17 1.808846838773043e-22
5.7835210386641895 1.231924871530677e-25 1.8912370886964353e-17 1.8912183091625415e-17 1.877953389460808e-22
5.827062130521658 1.3464846489260961e-25 2.0826701294591195e-17 2.082650627123836e-17 1.9502335283809093e-22
5.8489554468988025 1.4260209982183124e-25 2.2139798648742018e-17 2.2139599666036092e-17 1.9898270592044875e-22
5.870931020387893 1.5112395516338967e-25 2.3551020042417883e-17 2.3550817016232328e-17 2.0302618555177595e-22
5.892989160043636 1.6025932954020664e-25 2.50685027997391e-17 2.506829564387973e-17 2.0715585936224055e-22
5.915130176081913 1.7062036851560963e-25 2.6789500456891517e-17 2.6789288981689944e-17 2.1147520156938918e-22
5.95966208400165 1.994103324557482e-25 3.1545595218349285e-17 3.154537390088019e-17 2.213174690914025e-22
6.004529249263818 2.407004166342e-25 3.8364119911383366e-17 3.8363887202192003e-17 2.3270919137693524e-22
6.027089341400364 2.6930959135213387e-25 4.308527637874954e-17 4.3085036968229025e-17 2.394105205251198e-22
6.049734195844842 3.030676427322291e-25 4.8668201532375726e-17 4.8667954897310934e-17 2.4663506479353357e-22
6.095279466722835 4.0036140870693266e-25 6.477616975750029e-17 6.477590505662624e-17 2.6470087403915305e-22
6.141167624020661 5.498022623810329e-25 8.962453332522551e-17 8.962424452038898e-17 2.8880483653129354e-22
6.164241091010745 6.45204094207116e-25 1.0557137154834941e-16 1.0557106751933348e-16 3.040290159316105e-22
6.187401249150058 7.537979906930706e-25 1.2380343345251935e-16 1.2380311321004437e-16 3.202424750218632e-22
6.1990139391386085 8.068438277430425e-25 1.3276436634278487e-16 1.3276403778908271e-16 3.285537021336655e-22
6.204828454712694 8.347780581719759e-25 1.374897231157083e-16 1.3748939030039843e-16 3.3281530987185153e-22
6.210648424152782 8.55205280354384e-25 1.4098624764102167e-16 1.409859111808338e-16 3.36460187871953e-22
6.233982942956859 9.246774102940015e-25 1.530119291580522e-16 1.5301157964721835e-16 3.4951083390537953e-22
6.239830258556775 9.336112126120217e-25 1.5463516701518457e-16 1.5463481552252027e-16 3.514926643064276e-22
6.245683058788269 9.344850938597898e-25 1.5492508860725176e-16 1.549247351208515e-16 3.5348640022026675e-22
6.257405133728602 9.328065756514886e-25 1.5493705833283674e-16 1.5493670125425365e-16 3.5707858311319847e-22
6.269149208991335 9.194476555059056e-25 1.5300479776254353e-16 1.5300443893451305e-16 3.5882803051810404e-22
6.280915325867298 8.856104898055794e-25 1.4765056857398777e-16 1.4765021029026643e-16 3.5828372135265373e-22
6.304513850009849 8.020448448777191e-25 1.3422075825001796e-16 1.342204031671583e-16 3.550828597075242e-22
6.32820103803542 6.983662907490179e-25 1.1730944201004274e-16 1.1730909258030813e-16 3.4942973458341245e-22
6.3519772230701035 6.033086587297585e-25 1.0172271043225406e-16 1.0172236609800162e-16 3.4433425245615277e-22
6.375842739491607 5.233505864174468e-25 8.857267168008131e-17 8.85723316406966e-17 3.400393846965358e-22
6.399797922933955 4.593962471384301e-25 7.804105598044808e-17 7.80407178458443e-17 3.3813460380323705e-22
6.42384311029221 4.062587058582984e-25 6.927348544488409e-17 6.927314860532933e-17 3.36839554767422e-22
6.447978639727206 3.6767668185564124e-25 6.293019983303063e-17 6.292986223626908e-17 3.3759676155730074e-22
6.472204850670314 3.3559243190989033e-25 5.765458440805426e-17 5.765424557762526e-17 3.388304290028942e-22
6.496522083828205 3.1491708326219014e-25 5.4305844602419864e-17 5.430550279168848e-17 3.4181073139558896e-22
