Dust emission spectrum from A.P. Jones, M. Kohler, N. Ysard, M. Bocchio, and L. Verstraete (2017), A&A, 602A, 46J 
inside the DustPedia framework.

lambda    nu*dP/dnu     j_nu    j_nu(carb.) j_nu(sil)
 (um)   (erg s-1 H-1) (Jy cm2 sr-1 H-1)
0.9927057738263894 2.029637404626836e-21 5.3482098422948554e-14 5.3482098422937075e-14 1.1465333202826489e-26
1.0001793341362166 2.0631609237565007e-21 5.477475120005279e-14 5.477475120003898e-14 1.3812810543489535e-26
1.0077091589558085 2.0966364103844847e-21 5.6082551317152604e-14 5.6082551317135994e-14 1.6619642221769726e-26
1.0114953028030835 2.1133520185273437e-21 5.6742066234782663e-14 5.674206623476445e-14 1.8221427434242622e-26
1.0152956718711033 2.130050684034031e-21 5.74052886929496e-14 5.740528869292965e-14 1.9971166598915126e-26
1.0229392996569957 2.1633742752290804e-21 5.874230150644259e-14 5.874230150641863e-14 2.396797179227634e-26
1.0267826658714554 2.1799587784069043e-21 5.941501933875205e-14 5.94150193387258e-14 2.6245226014119567e-26
1.0306404723013447 2.196519006086846e-21 6.009129886708605e-14 6.009129886705731e-14 2.872957580177519e-26
1.03451277320114 2.2130533601166885e-21 6.077111097800575e-14 6.07711109779743e-14 3.143893935911517e-26
1.0383996230291617 2.2295602512203674e-21 6.145442619453473e-14 6.145442619450034e-14 3.439269981239166e-26
1.0403485208654093 2.237802904028321e-21 6.179738815815861e-14 6.179738815812264e-14 3.5967714127078297e-26
1.0423010764483396 2.246038099302676e-21 6.21412146831323e-14 6.21412146830947e-14 3.7611817450822805e-26
1.0462171883269815 2.2624853337472556e-21 6.2831446260676e-14 6.283144626063485e-14 4.111894994152196e-26
1.0471985131304309 2.2665921758470618e-21 6.30045385679051e-14 6.300453856786309e-14 4.2043562522379287e-26
1.048180758391296 2.2706969827014638e-21 6.317784368170767e-14 6.317784368166468e-14 4.2988097895316795e-26
1.0501480137395462 2.278900393707812e-21 6.352509040144923e-14 6.352509040140428e-14 4.4938581036502264e-26
1.0521189612883777 2.2870953732337657e-21 6.3873182551803e-14 6.387318255175603e-14 4.6973767757205583e-26
1.0531058218030118 2.2911833471981297e-21 6.404736851623995e-14 6.404736851619192e-14 4.8024281180094007e-26
1.0540936079674168 2.295248520900391e-21 6.422118709656964e-14 6.422118709652052e-14 4.9097523111652355e-26
1.058054026499678 2.311486082521101e-21 6.491851251193771e-14 6.49185125118841e-14 5.362493648140227e-26
1.0590464539527713 2.315539570875003e-21 6.509335415535499e-14 6.509335415530019e-14 5.481781093099745e-26
1.06003981227728 2.3195906510582716e-21 6.526839891681455e-14 6.526839891675853e-14 5.603609034496504e-26
1.0620293250338977 2.327685492562814e-21 6.561909578875813e-14 6.561909578869959e-14 5.855093416071511e-26
1.0660195594769086 2.3438452421564832e-21 6.632290482722862e-14 6.63229048271647e-14 6.390881536763804e-26
1.070024785945596 2.3599638338488875e-21 6.702990722857652e-14 6.702990722850679e-14 6.973450060041189e-26
1.0740450607676866 2.376039781848836e-21 6.774007030207405e-14 6.774007030199798e-14 7.606672436668408e-26
1.07808044048254 2.3920716122666195e-21 6.845336107204097e-14 6.845336107195803e-14 8.294724099601587e-26
1.0861967418109137 2.4239687460073653e-21 6.988837532002494e-14 6.98883753199264e-14 9.853661560906709e-26
1.0902777775684922 2.439766718406642e-21 7.06081602801495e-14 7.060816028004217e-14 1.0734616788852062e-25
1.0943741465085532 2.455513674751227e-21 7.133088541118017e-14 7.133088541106325e-14 1.1690585665872337e-25
1.1026131145906286 2.486848941336589e-21 7.278501778970319e-14 7.278501778956466e-14 1.385220549536737e-25
1.1109141095355224 2.5179634852878753e-21 7.425049334091867e-14 7.425049334075475e-14 1.63925768486758e-25
1.1192775983109025 2.548817569511963e-21 7.57261708387976e-14 7.572617083860385e-14 1.937416426988172e-25
1.1277040513999907 2.5792678411243296e-21 7.720777145205159e-14 7.720777145182291e-14 2.286905238160771e-25
1.1361939428280308 2.609461434812083e-21 7.86996472100378e-14 7.869964720976819e-14 2.69603044676996e-25
1.1447477501889525 2.6393882810720446e-21 8.020150459537986e-14 8.02015045950624e-14 3.174351821421127e-25
1.1533659546722406 2.6690548600756926e-21 8.171354671399891e-14 8.17135467136256e-14 3.732862229220855e-25
1.1707974979042381 2.727703075565648e-21 8.477119631155006e-14 8.477119631103578e-14 5.142813215594584e-25
1.1884924949847024 2.785183872628649e-21 8.786577590092133e-14 8.786577590021629e-14 7.050410258307271e-25
1.2064549276569216 2.841946899764682e-21 9.101154642572566e-14 9.101154642476379e-14 9.618613689006792e-25
1.2246888378427687 2.8973720045990043e-21 9.418884083164189e-14 9.418884083033599e-14 1.3058977791355964e-24
1.2431983285522175 2.9513294891444602e-21 9.739295609626034e-14 9.739295609449582e-14 1.7645206894150916e-24
1.2619875648066055 3.0037991622861644e-21 1.0062256883839296e-13 1.0062256883602e-13 2.372960229402522e-24
1.3004222497298317 3.103402620600233e-21 1.0712527432725274e-13 1.0712527432302079e-13 4.2319796909260025e-24
1.3400274889804893 3.1957924807259922e-21 1.1367414885992572e-13 1.1367414885251483e-13 7.410847645843192e-24
1.3808389325824078 3.2806260191950972e-21 1.2024559661581686e-13 1.2024559660306824e-13 1.2748616229964636e-23
1.4228933163050095 3.3583162170111056e-21 1.2684208115120885e-13 1.268420811296542e-13 2.155467800818563e-23
1.466228494730424 3.430733401272041e-21 1.3352360802999047e-13 1.3352360799415453e-13 3.5835981384085675e-23
1.5108834753276823 3.496469071680987e-21 1.4022650032735423e-13 1.4022650026874211e-13 5.861210777393286e-23
1.5568984535646726 3.554383575487654e-21 1.468906030205598e-13 1.4689060292615456e-13 9.440518753972102e-23
1.6043148490894465 3.604582679687529e-21 1.5350199628626803e-13 1.5350199613625225e-13 1.5001576536554464e-22
1.6531753430134553 3.647218998893827e-21 1.6004797872877692e-13 1.6004797849385788e-13 2.349190748164367e-22
1.7035239163302658 3.682799333538982e-21 1.66531243161176e-13 1.6653124279856048e-13 3.6261552710930486e-22
1.755405889504358 3.7142523848584985e-21 1.7306864562009415e-13 1.7306864506809248e-13 5.520016743637782e-22
1.8088679632656115 3.7408548668176385e-21 1.7961688459931523e-13 1.7961688377031152e-13 8.290036485427487e-22
1.8639582606462262 3.76211687198998e-21 1.8613922401479014e-13 1.861392227860241e-13 1.2287661151608001e-21
1.9207263702978936 3.778393484630087e-21 1.9263806877136793e-13 1.9263806697313718e-13 1.798230761194213e-21
1.979223391128241 3.790511380767429e-21 1.991416278720562e-13 1.9914162527276187e-13 2.5992943343714286e-21
2.039501978296691 3.799459911670738e-21 2.056910667768121e-13 2.0569106306438607e-13 3.7124260204361494e-21
2.1016163906111602 3.808010363136538e-21 2.1243252026219064e-13 2.1243251502093308e-13 5.2412575565262856e-21
2.1656225393682647 3.817769583769728e-21 2.1946330213656447e-13 2.1946329481941063e-13 7.31715387672111e-21
2.231578038680979 3.8288524745772925e-21 2.268037052049719e-13 2.2680369510041182e-13 1.010456004628723e-20
2.299542257339062 3.842221044357791e-21 2.345271760148588e-13 2.345271622078761e-13 1.380698280375247e-20
2.369576372248914 3.860002673066527e-21 2.427882972004124e-13 2.427882785266398e-13 1.8673772560388688e-20
2.4417434235010123 3.8847093964239174e-21 2.5178392292801895e-13 2.517838979214735e-13 2.500654546102847e-20
2.5161083711144245 3.920643381985947e-21 2.618521335042568e-13 2.6185210033696214e-13 3.316729467716135e-20
2.5927381535095444 3.974845054096358e-21 2.7355729172269346e-13 2.735572481369617e-13 4.3585731772105395e-20
2.6717017477616296 4.055720003994718e-21 2.8762416603897893e-13 2.8762410927472716e-13 5.6764251816067e-20
2.753070231689431 4.175923689946195e-21 3.0516820095933667e-13 3.0516812767427227e-13 7.328506438513539e-20
2.836916847834745 4.364129230583426e-21 3.2863486950663314e-13 3.286347756869476e-13 9.38196855880914e-20
2.9233170693905177 4.6834882865065144e-21 3.6342499562686224e-13 3.634248765109048e-13 1.1911595738766346e-19
2.967498994190263 4.954699738515413e-21 3.902809507271377e-13 3.902808171224568e-13 1.3360468086027226e-19
3.0123486681368425 5.271442544615398e-21 4.2150637633898475e-13 4.215062266802863e-13 1.496586983950665e-19
3.0578761833420214 5.9801723989085144e-21 4.854036454583668e-13 4.854034779917852e-13 1.6746658160743823e-19
3.1040917844459814 6.893454572093273e-21 5.6799028214802e-13 5.679900950956072e-13 1.8705241297961843e-19
3.127460860933648 7.85959074332693e-21 6.524710530151093e-13 6.524708553931496e-13 1.9762195972814257e-19
3.1510058709225794 9.146840167325415e-21 7.650498523145147e-13 7.650496436140363e-13 2.087004785191688e-19
3.162844764501044 1.0345071698542363e-20 8.685219821962358e-13 8.685217677386107e-13 2.1445762509905388e-19
3.1747281389236908 1.1738522174264501e-20 9.892120523452093e-13 9.892118319966707e-13 2.203485384393494e-19
3.1986289994194426 1.5625273860378818e-20 1.3266639903334991e-12 1.3266637577626147e-12 2.325708847044306e-19
3.2227097969389145 2.478730719082457e-20 2.120410672280847e-12 2.120410426690466e-12 2.4559038098141007e-19
3.2348180950136065 3.3475793608521143e-20 2.874419685390509e-12 2.874419432832641e-12 2.525578667782272e-19
3.240889293275058 3.9971563764557364e-20 3.4386246184874855e-12 3.4386243622525706e-12 2.5623491549352873e-19
3.2469718861334385 4.748616476005456e-20 4.0927484847020125e-12 4.092748224660985e-12 2.600410292864807e-19
3.2714166318528037 8.757036464402963e-20 7.604356143296237e-12 7.60435586746867e-12 2.758275644178547e-19
3.2744851364798273 9.007613785327705e-20 7.829286999544688e-12 7.829286721842798e-12 2.7770188966221784e-19
3.2775565192852394 9.265388365588909e-20 8.060894745181466e-12 8.060894465594421e-12 2.795870480782764e-19
3.283707930232385 9.017483235316315e-20 7.859941223856563e-12 7.859940940872426e-12 2.8298413729859853e-19
3.2898708863219004 8.231310231921795e-20 7.18815208668656e-12 7.188151800586872e-12 2.860996868117597e-19
3.29141343181113 8.045911124908768e-20 7.029543150997501e-12 7.029542864114735e-12 2.8688276516984695e-19
3.292184975758714 7.954812586200572e-20 6.951581421897813e-12 6.951581134622877e-12 2.8727493460125353e-19
3.295272960557952 7.37979006018997e-20 6.455127652584319e-12 6.455127363779569e-12 2.888047517168298e-19
3.3076538914384823 5.3877391378632783e-20 4.730380245129194e-12 4.730379950165896e-12 2.9496329653302986e-19
3.310756385682612 4.9823066836167046e-20 4.378517756280061e-12 4.378517459761419e-12 2.965186420386672e-19
3.313861789986515 4.6082323907231295e-20 4.053574850048599e-12 4.053574551968297e-12 2.9808030243654285e-19
3.3200813396944477 4.0836340650956455e-20 3.598860185441502e-12 3.5988598840123337e-12 3.0142916854612906e-19
3.345076488085796 3.1477937035564277e-20 2.794999587464741e-12 2.794999271128491e-12 3.1633625068830596e-19
3.3482140837626964 3.182884257257904e-20 2.8288081729369293e-12 2.828807854580884e-12 3.183560453229874e-19
3.3513546224236106 3.218362769124126e-20 2.863022846191724e-12 2.8630225258051362e-12 3.203865870811196e-19
3.3576445397418455 3.477656687919197e-20 3.099494405425253e-12 3.0994940807961116e-12 3.2462914103318616e-19
3.3702598118196083 4.4340487460240233e-20 3.9667358209257434e-12 3.966735487390075e-12 3.335356673460852e-19
3.382922481734668 4.6518681917948516e-20 4.177234728865567e-12 4.1772343866234354e-12 3.4224213198385357e-19
3.389271646505754 4.764713718419728e-20 4.286596680040118e-12 4.286596333373757e-12 3.466663597309939e-19
3.395632727569191 4.886309858477584e-20 4.404241729322421e-12 4.404241378095311e-12 3.5122710958293403e-19
3.421196662673239 5.470167652993926e-20 4.967617059195055e-12 4.9676166890226055e-12 3.7017245007777564e-19
3.4276182099114902 5.3524965821104275e-20 4.869880149740707e-12 4.869879775284428e-12 3.7445627996866843e-19
3.4340518103208963 4.8368834926755383e-20 4.4090183138446136e-12 4.409017935310114e-12 3.7853449907236116e-19
3.4469541582030403 4.102555175669869e-20 3.753698366369361e-12 3.753697979951906e-12 3.864174551758506e-19
3.472904465399547 3.896741148778257e-20 3.592227450916676e-12 3.592227046396691e-12 4.0451998534863856e-19
3.4990501388274233 3.581964945573203e-20 3.3269090625898718e-12 3.3269086394035942e-12 4.2318627645049244e-19
3.5253949054701885 2.461783067935725e-20 2.303705641928405e-12 2.3037052003978098e-12 4.41530595408405e-19
3.5519380250092896 1.4089470191337933e-20 1.3284018603383898e-12 1.3284014001904108e-12 4.601479798523742e-19
3.578680990867387 9.914778366641657e-21 9.418363110555553e-13 9.418358304486037e-13 4.806069517080428e-19
3.605625307711299 8.226040197003614e-21 7.873010919673834e-13 7.873005896851223e-13 5.022822611179527e-19
3.660119384959845 6.993698376894794e-21 6.794720277913715e-13 6.794714794321823e-13 5.483591889659003e-19
3.715437065384467 6.1207694637261036e-21 6.036502219646596e-13 6.036496242361722e-13 5.977284875434849e-19
3.8285932144167436 5.676518287403682e-21 5.768869299887569e-13 5.768862232974082e-13 7.066913487540908e-19
3.94519561050918 5.589716318240499e-21 5.85366334874238e-13 5.853655048944058e-13 8.299798321051792e-19
4.06534921144712 5.64959149316609e-21 6.096552759636581e-13 6.096543071997157e-13 9.687639423716698e-19
4.189162171576248 5.794303574707885e-21 6.44314420115239e-13 6.443132953893105e-13 1.124725928555504e-18
4.316745939156006 6.000767551078575e-21 6.875950257336062e-13 6.875937267021471e-13 1.2990314589819755e-18
4.448215356677963 6.261180132358741e-21 7.392842205810801e-13 7.392827291674535e-13 1.4914136265074255e-18
4.58368876423945 6.576384629941655e-21 8.001506451813439e-13 8.00148941116182e-13 1.7040651619501494e-18
4.723288106065518 6.953613763496928e-21 8.718151953713546e-13 8.718132549739148e-13 1.9403974399036442e-18
4.867139040275056 7.407434635626468e-21 9.569979641949293e-13 9.569957660413594e-13 2.1981535702426147e-18
4.940699165968905 7.681463627000136e-21 1.0073997121867196e-12 1.0073973756731465e-12 2.3365135731489573e-18
5.015371051989984 7.965116089848403e-21 1.0603875301587356e-12 1.06038504882724e-12 2.4813314955532493e-18
5.091171501069577 8.31170635034557e-21 1.1232523899469136e-12 1.1232497545743738e-12 2.6353725399520437e-18
5.129500256944802 8.489534284756438e-21 1.1559215369436648e-12 1.1559188219226978e-12 2.7150209665624384e-18
5.168117569889187 8.674934845495092e-21 1.1900577572501777e-12 1.1900549602887307e-12 2.796961447069436e-18
5.20702561229733 8.902857992544508e-21 1.2305197626346422e-12 1.2305168774819753e-12 2.8851526667224832e-18
5.246226572918644 9.136570702188458e-21 1.2723297884558225e-12 1.2723268129598798e-12 2.9754959428028902e-18
5.265937586045735 9.255655860574045e-21 1.293755886852659e-12 1.2937528653654391e-12 3.021487219810178e-18
5.285722656980489 9.376258683424846e-21 1.315537964154774e-12 1.3155348961230032e-12 3.0680317708443537e-18
5.305582063971359 9.4984036712482e-21 1.3376826433598906e-12 1.3376795282250824e-12 3.115134808578355e-18
5.3255160863122235 9.629696281383469e-21 1.3612682765442684e-12 1.3612651135032161e-12 3.1630410519892244e-18
5.365609099470188 9.957236975636405e-21 1.418166773762347e-12 1.4181635113122972e-12 3.262450050261799e-18
5.406003951863644 1.0297248867588178e-20 1.4776344266003434e-12 1.477631062268725e-12 3.3643316185562907e-18
5.446702915881641 1.065033650075892e-20 1.5398075705869863e-12 1.539804101850786e-12 3.4687361998287502e-18
5.487708281020852 1.1031981710899416e-20 1.6069929928035044e-12 1.606989416784404e-12 3.576019100110548e-18
5.529022354014368 1.1563461708806746e-20 1.6970930130439202e-12 1.697089324410894e-12 3.688633026205435e-18
5.570647458961463 1.2126348144352145e-20 1.7931026005336898e-12 1.7930987964065774e-12 3.804127112512695e-18
5.612585937458331 1.2722907852030132e-20 1.8954783074850384e-12 1.8954743849193907e-12 3.9225656474257165e-18
5.654840148729818 1.33788818270413e-20 2.008212118782476e-12 2.0082080743599735e-12 4.044422502910178e-18
5.67608639626678 1.3826206521918437e-20 2.08315444621103e-12 2.0831503379200776e-12 4.108290952681655e-18
5.686739436050992 1.4056799154412527e-20 2.121872098942676e-12 2.1218679584015145e-12 4.140541161766105e-18
5.6974124697621304 1.4292159651768683e-20 2.1614488059528327e-12 2.1614446329491027e-12 4.173003729708883e-18
5.718818669136295 1.477764431467573e-20 2.243267004878259e-12 2.2432627663071495e-12 4.2385711092818236e-18
5.740305295436557 1.5312959530628377e-20 2.33326227121863e-12 2.3332579658277308e-12 4.305390899554843e-18
5.7835210386641895 1.6702721508677618e-20 2.5641828596357047e-12 2.564178414875987e-12 4.44475971715037e-18
5.827062130521658 1.830422893762523e-20 2.8311998121610706e-12 2.8311952232413275e-12 4.588919742939139e-18
5.8489554468988025 1.942846046564308e-20 3.0163805673395208e-12 3.016375900766152e-12 4.6665733696094045e-18
5.870931020387893 2.0635050245207104e-20 3.215747505918256e-12 3.2157427605183767e-12 4.745399879684597e-18
5.892989160043636 2.1930631944884943e-20 3.430490504906719e-12 3.430485679489204e-12 4.825417514699376e-18
5.915130176081913 2.3404373273195297e-20 3.674775022175404e-12 3.674770113704075e-12 4.908471328083909e-18
5.95966208400165 2.7526593825860025e-20 4.354552624614824e-12 4.3545475300742914e-12 5.094540532594226e-18
6.004529249263818 3.347014082125595e-20 5.334650076110861e-12 5.334644772206423e-12 5.303904437888765e-18
6.027089341400364 3.760252338924954e-20 6.015809183141348e-12 6.0158037593519336e-12 5.423789411211443e-18
6.049734195844842 4.248645855801501e-20 6.822699740748386e-12 6.822694189631817e-12 5.551116569556941e-18
6.095279466722835 5.659620281815375e-20 9.156939609187567e-12 9.156933749583141e-12 5.859604428741873e-18
6.141167624020661 7.831366301615005e-20 1.2766090613041385e-11 1.2766084357317934e-11 6.255723449573965e-18
6.164241091010745 9.218275726247044e-20 1.5083382459416877e-11 1.508337595823428e-11 6.50118260156623e-18
6.187401249150058 1.0798280821162837e-19 1.7735046491902766e-11 1.7735039734922633e-11 6.7569801363444456e-18
6.1990139391386085 1.1569753514775205e-19 1.903777337465768e-11 1.903776648698401e-11 6.887673674319443e-18
6.204828454712694 1.1976147261705619e-19 1.972496946805988e-11 1.9724962513968317e-11 6.954091564912692e-18
6.210648424152782 1.2272786743136858e-19 2.0232500789709036e-11 2.023249377805518e-11 7.011653857121607e-18
6.233982942956859 1.3280566265702642e-19 2.1976151271830128e-11 2.197614405400557e-11 7.217824556701531e-18
6.239830258556775 1.3409363189222985e-19 2.2210092255977097e-11 2.2210085005857286e-11 7.250119806581057e-18
6.245683058788269 1.3420473418784937e-19 2.224934402076703e-11 2.224933673821377e-11 7.28255326010031e-18
6.257405133728602 1.33926520642019e-19 2.2244891580587398e-11 2.2244884239068698e-11 7.341518700012866e-18
6.269149208991335 1.3194263220623615e-19 2.195650359874474e-11 2.1956496225332588e-11 7.373412146760153e-18
6.280915325867298 1.2696957389630905e-19 2.1168594989770958e-11 2.1168587618149324e-11 7.37162163395179e-18
6.304513850009849 1.147065470734461e-19 1.9195933771990777e-11 1.919592643469759e-11 7.33729318458542e-18
6.32820103803542 9.950683730531846e-20 1.6714855391933775e-11 1.6714848122591773e-11 7.269342005983459e-18
6.3519772230701035 8.556747697268421e-20 1.4427367412291351e-11 1.4427360201169385e-11 7.21112196430651e-18
6.375842739491607 7.384071665109357e-20 1.2496918360845072e-11 1.24969111970582e-11 7.163786870832044e-18
6.399797922933955 6.444113330516114e-20 1.094709441585009e-11 1.0947087261049162e-11 7.154800930885316e-18
6.42384311029221 5.662629011182977e-20 9.65567119496474e-12 9.655664040854218e-12 7.154110521244063e-18
6.447978639727206 5.09305398438787e-20 8.717085439858825e-12 8.717078255304501e-12 7.18455432408013e-18
6.472204850670314 4.618556830420572e-20 7.934653743752399e-12 7.934646521995627e-12 7.221756772038632e-18
6.496522083828205 4.310067502565474e-20 7.432491549700652e-12 7.432484264779197e-12 7.284921452690535e-18
