Dust emission spectrum from A.P. Jones, M. Kohler, N. Ysard, M. Bocchio, and L. Verstraete (2017), A&A, 602A, 46J 
inside the DustPedia framework.

lambda    nu*dP/dnu     j_nu    j_nu(carb.) j_nu(sil)
 (um)   (erg s-1 H-1) (Jy cm2 sr-1 H-1)
0.9927057738263894 1.6396970820013162e-23 4.320694944008446e-16 4.3206949428949954e-16 1.113450697311236e-25
1.0001793341362166 1.6667792148574343e-23 4.425123399148405e-16 4.4251233978072397e-16 1.3411658206626903e-25
1.0077091589558085 1.6938293916366755e-23 4.530793861466186e-16 4.530793859852819e-16 1.6133673115603304e-25
1.0114953028030835 1.7073392740224537e-23 4.584089982289639e-16 4.584089980520965e-16 1.7686739501460165e-25
1.0152956718711033 1.720837311428283e-23 4.637690708328779e-16 4.637690706390479e-16 1.9383021182854026e-25
1.0229392996569957 1.747779504596102e-23 4.745761831474745e-16 4.745761829149055e-16 2.3256873560186765e-25
1.0267826658714554 1.7611910635130946e-23 4.800145862131334e-16 4.800145859584974e-16 2.5463603616360678e-25
1.0306404723013447 1.7745850299496483e-23 4.854823432178622e-16 4.854823429391558e-16 2.7870657925710948e-25
1.03451277320114 1.787960157573488e-23 4.909792376376409e-16 4.909792373326877e-16 3.0495329874136865e-25
1.0383996230291617 1.801315207449618e-23 4.965050503062822e-16 4.965050499727193e-16 3.335632276782687e-25
1.0403485208654093 1.8079848181489294e-23 4.992787317867973e-16 4.992787314379804e-16 3.488169621721645e-25
1.0423010764483396 1.8146489482883086e-23 5.020595594754773e-16 5.020595591107388e-16 3.6473857490907873e-25
1.0462171883269815 1.8279601566879865e-23 5.076425408750449e-16 5.07642540476347e-16 3.9869787779214175e-25
1.0471985131304309 1.831284295497306e-23 5.09042708494041e-16 5.090427080863908e-16 4.076499601442377e-25
1.048180758391296 1.8346069311257537e-23 5.104446379020838e-16 5.104446374852892e-16 4.167945722454931e-25
1.0501480137395462 1.8412476173730435e-23 5.132537677733723e-16 5.13253767337695e-16 4.356772360193091e-25
1.0521189612883777 1.847882064828263e-23 5.160699017728034e-16 5.160699013174253e-16 4.553783422514722e-25
1.0531058218030118 1.8511918338272188e-23 5.174791695320972e-16 5.174791690665503e-16 4.655469649027217e-25
1.0540936079674168 1.854483381727997e-23 5.188855286952233e-16 5.188855282192883e-16 4.759351915627328e-25
1.058054026499678 1.867632355840648e-23 5.245279881940801e-16 5.245279876743272e-16 5.1975288824165e-25
1.0590464539527713 1.870915202668283e-23 5.25942840337227e-16 5.259428398059304e-16 5.312967320301146e-25
1.06003981227728 1.874196254010258e-23 5.273593799808258e-16 5.2735937943773995e-16 5.430859461684495e-25
1.0620293250338977 1.880752896916766e-23 5.301975068886384e-16 5.30197506321218e-16 5.674204307864385e-25
1.0660195594769086 1.8938438324364063e-23 5.358938465610856e-16 5.358938459418267e-16 6.192586503494935e-25
1.070024785945596 1.9069039993478053e-23 5.416167669045281e-16 5.416167662289145e-16 6.7561355690863765e-25
1.0740450607676866 1.9199322442710227e-23 5.473660255845501e-16 5.473660248476919e-16 7.368581836256561e-25
1.07808044048254 1.9329274236964436e-23 5.531413783008213e-16 5.53141377497427e-16 8.033945558208162e-25
1.0861967418109137 1.9587912173522913e-23 5.647627924137826e-16 5.64762791459674e-16 9.54108471885716e-25
1.0902777775684922 1.9716056458737915e-23 5.705932719010952e-16 5.705932708618402e-16 1.0392549722806326e-24
1.0943741465085532 1.9843816297396085e-23 5.764484233929076e-16 5.764484222612721e-16 1.1316354909061798e-24
1.1026131145906286 2.0098139350173078e-23 5.882317199998715e-16 5.8823171865940335e-16 1.3404682559027693e-24
1.1109141095355224 2.035079588546833e-23 6.0011062241579885e-16 6.001106208299952e-16 1.5858036018619059e-24
1.1192775983109025 2.060146927325979e-23 6.120761251719658e-16 6.120761232983222e-16 1.873643920870924e-24
1.1277040513999907 2.084900739092487e-23 6.240939277322104e-16 6.240939255212979e-16 2.210912662355988e-24
1.1361939428280308 2.1094600538211877e-23 6.361993314967313e-16 6.361993288911472e-16 2.605583994178439e-24
1.1447477501889525 2.1338171469471386e-23 6.483901854980993e-16 6.483901824312684e-16 3.0668308567741985e-24
1.1533659546722406 2.1579775448708605e-23 6.606683195547539e-16 6.606683159495581e-16 3.605196079604664e-24
1.1707974979042381 2.205786345074908e-23 6.855113701879216e-16 6.855113652244528e-16 4.9634687770938884e-24
1.1884924949847024 2.252711715655601e-23 7.10675746482631e-16 7.106757396829572e-16 6.799673772059309e-24
1.2064549276569216 2.2991186678866339e-23 7.362781669071399e-16 7.362781576374069e-16 9.269732954348145e-24
1.2246888378427687 2.344511845826702e-23 7.621625829336076e-16 7.621625703577587e-16 1.2575848793836001e-23
1.2431983285522175 2.388789434392608e-23 7.882930908349765e-16 7.882930738556355e-16 1.6979341196618695e-23
1.2619875648066055 2.4319401281653922e-23 8.146618656452629e-16 8.146618428290583e-16 2.2816204490765133e-23
1.3004222497298317 2.5141732205602658e-23 8.678586986133925e-16 8.678586579883677e-16 4.062502433080675e-23
1.3400274889804893 2.5909311605365937e-23 9.215926760105213e-16 9.215926049892111e-16 7.102131030060486e-23
1.3808389325824078 2.661976028280044e-23 9.757006553769605e-16 9.757005334137232e-16 1.2196323693258e-22
1.4228933163050095 2.727682118744405e-23 1.0302331713372869e-15 1.0302329654984808e-15 2.0583880616739696e-22
1.466228494730424 2.789603858287353e-23 1.0857094637397442e-15 1.0857091221541184e-15 3.415856254767645e-22
1.5108834753276823 2.8466583489405926e-23 1.1416572825787147e-15 1.141656724960777e-15 5.57617937671569e-22
1.5568984535646726 2.897980775643325e-23 1.1976370434860402e-15 1.197636147109924e-15 8.9637611632802e-22
1.6043148490894465 2.943714697032979e-23 1.253587787119256e-15 1.253586365589296e-15 1.4215299598706904e-21
1.6531753430134553 2.9840472482168703e-23 1.309465460267476e-15 1.3094632388170636e-15 2.2214504125371433e-21
1.7035239163302658 3.0194514353431886e-23 1.3653554148694323e-15 1.365351993208108e-15 3.421661323835759e-21
1.755405889504358 3.052364984681721e-23 1.422274576683593e-15 1.422269379412853e-15 5.197270740368621e-21
1.8088679632656115 3.0822762653795e-23 1.4799527914667604e-15 1.4799450038148574e-15 7.78765190270617e-21
1.8639582606462262 3.108854836475817e-23 1.5381761027805122e-15 1.5381645867163303e-15 1.1516064181436156e-20
1.9207263702978936 3.1324558683855845e-23 1.5970550749994595e-15 1.5970382624678042e-15 1.6812531654584757e-20
1.979223391128241 3.153815385521499e-23 1.656916090708403e-15 1.6568918490379948e-15 2.424167040837218e-20
2.039501978296691 3.173792748530881e-23 1.718193720556357e-15 1.7181591863891906e-15 3.4534167166551505e-20
2.1016163906111602 3.194700651764595e-23 1.7821860925258267e-15 1.782137465965496e-15 4.8626560329487313e-20
2.1656225393682647 3.217898513245339e-23 1.8497989943118557e-15 1.849731294457762e-15 6.76998540933388e-20
2.231578038680979 3.2435092488665457e-23 1.9213065021282725e-15 1.9212132778970094e-15 9.322423126293009e-20
2.299542257339062 3.272346788534323e-23 1.997423475630678e-15 1.9972964673784272e-15 1.2700825225076995e-19
2.369576372248914 3.3061506638582943e-23 2.0795184821166935e-15 2.0793472283436665e-15 1.7125377302672185e-19
2.4417434235010123 3.346961594732113e-23 2.1693028595313467e-15 2.169074253888329e-15 2.286056430177138e-19
2.5161083711144245 3.398259943032733e-23 2.2696316129482768e-15 2.2693293983096867e-15 3.022146385902422e-19
2.5927381535095444 3.4657156270530803e-23 2.385179215578736e-15 2.3847834249842187e-15 3.9579059451736903e-19
2.6717017477616296 3.5560117845415374e-23 2.52185782782374e-15 2.5213441963936448e-15 5.136314300951195e-19
2.753070231689431 3.6791791332738007e-23 2.688670963531817e-15 2.6880102951934985e-15 6.606683383179866e-19
2.836916847834745 3.858026358128927e-23 2.9052347484846416e-15 2.904392219467739e-15 8.425290169018303e-19
2.9233170693905177 4.142771208701407e-23 3.2146693154824547e-15 3.213603930095248e-15 1.0653853872067835e-18
2.967498994190263 4.3744591210943524e-23 3.445754848525403e-15 3.4445624757312252e-15 1.1923727941783717e-18
3.0123486681368425 4.642664523011782e-23 3.7122906739279145e-15 3.710957951840113e-15 1.332722087800392e-18
3.0578761833420214 5.223534277021345e-23 4.239882082171531e-15 4.238394061050022e-15 1.4880211215082285e-18
3.1040917844459814 5.966773119603695e-23 4.916358136944677e-15 4.914699830640732e-15 1.6583063039457753e-18
3.127460860933648 6.744265782092903e-23 5.598813399275343e-15 5.597063406197625e-15 1.7499930777160098e-18
3.1510058709225794 7.776849087106538e-23 6.504625790682034e-15 6.502779849899384e-15 1.8459407826510123e-18
3.162844764501044 8.735378782212268e-23 7.33379981912638e-15 7.331904079399792e-15 1.8957397265838474e-18
3.1747281389236908 9.848350078866739e-23 8.299261567259662e-15 8.297314913605866e-15 1.9466536537924827e-18
3.1986289994194426 1.2947264286927653e-22 1.0992875680952334e-14 1.0990823524929408e-14 2.052156022928335e-18
3.2227097969389145 2.0241931796057421e-22 1.7315801138668735e-14 1.731363678843512e-14 2.1643502336182034e-18
3.2348180950136065 2.7154868173783747e-22 2.331669520540947e-14 2.331447087695242e-14 2.2243284570467315e-18
3.240889293275058 3.2322755371925534e-22 2.7806223197553353e-14 2.780396722869535e-14 2.2559688580035093e-18
3.2469718861334385 3.830195457492576e-22 3.3011776659529197e-14 3.300948794889338e-14 2.2887106358119912e-18
3.2714166318528037 7.017097790515556e-22 6.093443930298331e-14 6.093201495741076e-14 2.4243455725323876e-18
3.2744851364798273 7.216419614612774e-22 6.272407056792077e-14 6.272163014754199e-14 2.440420378764791e-18
3.2775565192852394 7.421447916633335e-22 6.456665187938423e-14 6.456419529516882e-14 2.45658421540464e-18
3.283707930232385 7.2247288701566285e-22 6.297316312752624e-14 6.297067745574061e-14 2.4856717856267747e-18
3.2898708863219004 6.600110231821992e-22 5.763674894823634e-14 5.763423663732065e-14 2.512310915695018e-18
3.29141343181113 6.452790954375635e-22 5.6376675995988214e-14 5.637415699124556e-14 2.5190047426282056e-18
3.292184975758714 6.380400693417325e-22 5.575728459217965e-14 5.575476223540569e-14 2.5223567739639612e-18
3.295272960557952 5.923674798553888e-22 5.181458643835422e-14 5.1812051011253157e-14 2.535427101057181e-18
3.3076538914384823 4.340742422638363e-22 3.811127762467369e-14 3.8108689611709836e-14 2.588012963857943e-18
3.310756385682612 4.0183875517591746e-22 3.5314127299406286e-14 3.5311526013112035e-14 2.6012862942448284e-18
3.313861789986515 3.7208915922587997e-22 3.2730364485309154e-14 3.272774987472962e-14 2.614610579536415e-18
3.3200813396944477 3.303814194828684e-22 2.9116138165986584e-14 2.9113494972276964e-14 2.6431937096203587e-18
3.345076488085796 2.5608999411060677e-22 2.273882901170759e-14 2.2736058621752618e-14 2.7703899549716745e-18
3.3482140837626964 2.5889830399175626e-22 2.3009747734978565e-14 2.3006960120187704e-14 2.7876147908622663e-18
3.3513546224236106 2.617373891478893e-22 2.328389241952729e-14 2.328108749241493e-14 2.804927112350086e-18
3.3576445397418455 2.8240000436608305e-22 2.5169167407046787e-14 2.5166326312378758e-14 2.8410946680229107e-18
3.3702598118196083 3.5851736200485533e-22 3.2073252770702776e-14 3.20703357889561e-14 2.9169817466830606e-18
3.382922481734668 3.759315628612735e-22 3.37574994672178e-14 3.375450839141979e-14 2.991075797990313e-18
3.389271646505754 3.849512598018862e-22 3.463231769549652e-14 3.462928899659348e-14 3.028698903045895e-18
3.395632727569191 3.9468123429728476e-22 3.5574321158874893e-14 3.557125368313802e-14 3.067475736871309e-18
3.421196662673239 4.41424162796759e-22 4.00870017256217e-14 4.008377334534745e-14 3.228380274245935e-18
3.4276182099114902 4.321048857091509e-22 3.931434561871817e-14 3.9311080966172975e-14 3.2646525451982267e-18
3.4340518103208963 3.9110053213362654e-22 3.5650422660432795e-14 3.564712352417731e-14 3.2991362554913625e-18
3.4469541582030403 3.3268482692468243e-22 3.0439529460786577e-14 3.04361637756664e-14 3.3656851201703704e-18
3.472904465399547 3.1639366790366043e-22 2.9166885244509706e-14 2.916336674547361e-14 3.518499036086944e-18
3.4990501388274233 2.9144241089178345e-22 2.706900856797065e-14 2.7065332831146333e-14 3.6757368243163755e-18
3.5253949054701885 2.0242826342392074e-22 1.894298236954285e-14 1.8939152525038578e-14 3.829844504272325e-18
3.5519380250092896 1.1867990657795893e-22 1.1189534208310509e-14 1.1185548358808927e-14 3.985849501584911e-18
3.578680990867387 8.552958116689903e-23 8.12472676982738e-15 8.120569712676289e-15 4.157057151094046e-18
3.605625307711299 7.218821629320897e-23 6.90901820969987e-15 6.90468012102489e-15 4.338088674978853e-18
3.660119384959845 6.259612662482204e-23 6.081520076726226e-15 6.0767985050187535e-15 4.7215717074710926e-18
3.715437065384467 5.585084680636633e-23 5.508192437467356e-15 5.5030619412840435e-15 5.130496183313673e-18
3.8285932144167436 5.274902954282338e-23 5.3607201055567726e-15 5.3546941775292335e-15 6.0259280275386025e-18
3.94519561050918 5.2501920386047304e-23 5.49810669460118e-15 5.491078742943685e-15 7.027951657494294e-18
4.06534921144712 5.343051344232724e-23 5.765761021299442e-15 5.75761855261452e-15 8.142468684921295e-18
4.189162171576248 5.504229273589898e-23 6.120587654527905e-15 6.1112086643480755e-15 9.378990179827975e-18
4.316745939156006 5.71524524142959e-23 6.548785910142967e-15 6.538044047142516e-15 1.0741863000450159e-17
4.448215356677963 5.969821222254902e-23 7.048822324235659e-15 7.036599371913408e-15 1.222295232225241e-17
4.58368876423945 6.268577478471285e-23 7.626996588568665e-15 7.613163201956726e-15 1.3833386611941293e-17
4.723288106065518 6.617294807251656e-23 8.29648922334267e-15 8.280896442044223e-15 1.559278129845256e-17
4.867139040275056 7.027594828634338e-23 9.079248451067959e-15 9.061774855443729e-15 1.747359562422862e-17
4.940699165968905 7.270743710545784e-23 9.535350913648342e-15 9.516882995056745e-15 1.8467918591597547e-17
5.015371051989984 7.521426341070983e-23 1.0013195804194378e-14 9.993698271466829e-15 1.9497532727546528e-17
5.091171501069577 7.823041586959393e-23 1.0572137403339439e-14 1.0551554991539449e-14 2.0582411799991713e-17
5.129500256944802 7.977349629416963e-23 1.0861832858051981e-14 1.0840694305627903e-14 2.113855242407581e-17
5.168117569889187 8.137708402964413e-23 1.1163591639211964e-14 1.114188372176068e-14 2.1707917451288463e-17
5.20702561229733 8.332684947043771e-23 1.1517125749654931e-14 1.1494803463050635e-14 2.2322286604297958e-17
5.246226572918644 8.532163889092318e-23 1.1881620172302714e-14 1.1858672106648334e-14 2.294806565437758e-17
5.265937586045735 8.633635284409655e-23 1.2068098298385807e-14 1.2044833044907236e-14 2.32652534785661e-17
5.285722656980489 8.736285294316232e-23 1.2257463619979899e-14 1.2233878302873835e-14 2.3585317106062068e-17
5.305582063971359 8.840132424651975e-23 1.2449767475407742e-14 1.2425859211272603e-14 2.3908264135141238e-17
5.3255160863122235 8.951412408897104e-23 1.2653850533223383e-14 1.2629614563788207e-14 2.4235969435172796e-17
5.365609099470188 9.226937211584621e-23 1.3141532946416973e-14 1.3116618239339671e-14 2.4914707077301873e-17
5.406003951863644 9.512216268415637e-23 1.3649838332761298e-14 1.3624232176611527e-14 2.560615614977608e-17
5.446702915881641 9.807715853408456e-23 1.4179829078797842e-14 1.4153518674012248e-14 2.6310404785595794e-17
5.487708281020852 1.0126124736394655e-22 1.475039745539405e-14 1.472336766612583e-14 2.7029789268226422e-17
5.529022354014368 1.0566807988075733e-22 1.5508207194634735e-14 1.5480425129716674e-14 2.778206491806105e-17
5.570647458961463 1.103218190323391e-22 1.6313100881457738e-14 1.628455222946772e-14 2.8548651990015414e-17
5.612585937458331 1.1524012523307183e-22 1.716865044308972e-14 1.7139320770152115e-14 2.9329672937604906e-17
5.654840148729818 1.2063327630703057e-22 1.810743308297747e-14 1.8077304942553113e-14 3.012814042435079e-17
5.67608639626678 1.2430292430248578e-22 1.8728361176094108e-14 1.8697815666937423e-14 3.054550915668221e-17
5.686739436050992 1.2619239835847028e-22 1.9048726970780157e-14 1.901797125243374e-14 3.075571834641191e-17
5.6974124697621304 1.2811946135371925e-22 1.9375914033261357e-14 1.9344947085703103e-14 3.0966947558248363e-17
5.718818669136295 1.320899541695599e-22 2.0051439157334815e-14 2.0020046680840866e-14 3.139247649394683e-17
5.740305295436557 1.3646314667781472e-22 2.0793126953562394e-14 2.0761302308627797e-14 3.1824644934604485e-17
5.7835210386641895 1.478025369884134e-22 2.269047782180064e-14 2.2657756472900152e-14 3.272134890048142e-17
5.827062130521658 1.6083277391748294e-22 2.487674956733787e-14 2.4843107335001386e-14 3.364223233648261e-17
5.8489554468988025 1.6998247651331426e-22 2.6390760083626435e-14 2.6356623645589843e-14 3.4136438036605035e-17
5.870931020387893 1.7978467899771666e-22 2.801748123794883e-14 2.7982845162671244e-14 3.463607527758486e-17
5.892989160043636 1.9029154302212681e-22 2.9766280020658995e-14 2.9731138837030563e-14 3.5141183628428996e-17
5.915130176081913 2.0223334776738632e-22 3.175312777452736e-14 3.171746359051656e-14 3.566418401079678e-17
5.95966208400165 2.3563859326984925e-22 3.7276702714296265e-14 3.723986729884905e-14 3.6835415447223457e-17
6.004529249263818 2.837489006541445e-22 4.522541756112646e-14 4.518727392780246e-14 3.814363332398148e-17
6.027089341400364 3.1719393676894634e-22 5.074601451340168e-14 5.070712539533125e-14 3.888911807043456e-17
6.049734195844842 3.5667603053721956e-22 5.727691936842724e-14 5.723724221975762e-14 3.9677148669623376e-17
6.095279466722835 4.707332070730838e-22 7.616192137584167e-14 7.612034431560633e-14 4.157706023534095e-17
6.141167624020661 6.461579799334336e-22 1.0533170081022616e-13 1.0528770353773905e-13 4.399727248709978e-17
6.164241091010745 7.582430593744829e-22 1.2406734623026797e-13 1.2402185247271298e-13 4.5493757554975084e-17
6.187401249150058 8.85777134762537e-22 1.454796270503579e-13 1.4543258985704615e-13 4.703719331172969e-17
6.1990139391386085 9.480632214067957e-22 1.5600170505742332e-13 1.559538810120889e-13 4.7824045334431484e-17
6.204828454712694 9.808599111357676e-22 1.6154971525326351e-13 1.6150149306437496e-13 4.822218888853204e-17
6.210648424152782 1.0048149750312762e-21 1.6565039547518072e-13 1.6560182850267115e-13 4.8566972509593136e-17
6.233982942956859 1.0861890162270266e-21 1.7973822541024428e-13 1.796884324012781e-13 4.9793008966251603e-17
6.239830258556775 1.0965873253680872e-21 1.8162909990188488e-13 1.8157911894818343e-13 4.998095370138235e-17
6.245683058788269 1.0974888273240245e-21 1.819489202512142e-13 1.8189875077600903e-13 5.0169475205209037e-17
6.257405133728602 1.0952532852775455e-21 1.8191908867254705e-13 1.81868578663042e-13 5.0510009505040576e-17
6.269149208991335 1.0792535035832589e-21 1.7959800436862657e-13 1.7954731862190494e-13 5.068574672160146e-17
6.280915325867298 1.039126614895336e-21 1.7324505217112095e-13 1.731943953145729e-13 5.065685654804851e-17
6.304513850009849 9.401585984870892e-22 1.5733384581936966e-13 1.5728343265494506e-13 5.0413164424554935e-17
6.32820103803542 8.17515792725223e-22 1.373238123737841e-13 1.3727384066964054e-13 4.9971704143592605e-17
6.3519772230701035 7.050394037512751e-22 1.1887533532523865e-13 1.18825742262219e-13 4.959306301969188e-17
6.375842739491607 6.103451965000254e-22 1.0329577553581067e-13 1.0324649745996204e-13 4.927807584859266e-17
6.399797922933955 5.345201287183849e-22 9.080290826890001e-14 9.075370621390365e-14 4.920205499631636e-17
6.42384311029221 4.714204898530167e-22 8.038459230863525e-14 8.033541855664386e-14 4.9173751991391646e-17
6.447978639727206 4.25468749427937e-22 7.28216793327192e-14 7.277234527231972e-14 4.933406039948011e-17
6.472204850670314 3.8715735777938225e-22 6.651340864946607e-14 6.646387544499427e-14 4.9533204471818147e-17
6.496522083828205 3.622779017108553e-22 6.247297615423627e-14 6.242308887070068e-14 4.988728353559793e-17
6.520930681187647 3.413059440290479e-22 5.907760332953884e-14 5.902733588359676e-14 5.026744594210552e-17
6.57002334288761 3.198517141286107e-22 5.578083719299199e-14 5.5729586660642835e-14 5.125053234917438e-17
