Dust emission spectrum from A.P. Jones, M. Kohler, N. Ysard, M. Bocchio, and L. Verstraete (2017), A&A, 602A, 46J 
inside the DustPedia framework.

lambda    nu*dP/dnu     j_nu    j_nu(carb.) j_nu(sil)
 (um)   (erg s-1 H-1) (Jy cm2 sr-1 H-1)
0.9927057738263894 1.4639932668617779e-19 3.857705411338296e-12 3.857705316256524e-12 9.508177079542235e-20
1.0001793341362166 1.4885188936279477e-19 3.951861006876623e-12 3.951860892492425e-12 1.1438419618971123e-19
1.0077091589558085 1.5131521787944148e-19 4.0475036252154466e-12 4.04750348779525e-12 1.3742019723357312e-19
1.0114953028030835 1.5255082609126065e-19 4.095886062688675e-12 4.095885912141177e-12 1.505474983349582e-19
1.0152956718711033 1.5378901595763951e-19 4.144644503075066e-12 4.144644338201794e-12 1.648732718299761e-19
1.0229392996569957 1.562717924573496e-19 4.243262413994362e-12 4.243262216447269e-12 1.9754709431587135e-19
1.0267826658714554 1.5751356616090565e-19 4.293049791705349e-12 4.293049575569195e-12 2.161361551176017e-19
1.0306404723013447 1.5875772811890756e-19 4.343216726746445e-12 4.343216490351533e-12 2.3639491264434615e-19
1.03451277320114 1.6000424851676697e-19 4.3937647951932615e-12 4.3937645367276195e-12 2.5846564160164914e-19
1.0383996230291617 1.6125309878397676e-19 4.444695608668013e-12 4.444695326165977e-12 2.825020345687013e-19
1.0403485208654093 1.6187838903758042e-19 4.470305058486135e-12 4.470304763177421e-12 2.9530871533977757e-19
1.0423010764483396 1.6250425162292952e-19 4.496010815737004e-12 4.4960105070669455e-12 3.086700572567741e-19
1.0462171883269815 1.6375768103745954e-19 4.547712103325159e-12 4.547711766176295e-12 3.371488628509734e-19
1.0471985131304309 1.6407139118580585e-19 4.5606979517578006e-12 4.560697607105847e-12 3.446519526526388e-19
1.048180758391296 1.643852416995844e-19 4.573708065318505e-12 4.573707713003865e-12 3.5231463967273674e-19
1.0501480137395462 1.6501336236108694e-19 4.599801198147124e-12 4.5998008300153555e-12 3.68131769135739e-19
1.0521189612883777 1.656420401510027e-19 4.625991724104928e-12 4.625991339478131e-12 3.846268004201161e-19
1.0531058218030118 1.659561753152788e-19 4.639112068862397e-12 4.639111675724716e-12 3.931376808694859e-19
1.0540936079674168 1.6626909972347065e-19 4.652219079758032e-12 4.652218677927619e-12 4.018304129821794e-19
1.058054026499678 1.6752211933664202e-19 4.704889587014348e-12 4.704889148539591e-12 4.384747575914721e-19
1.0590464539527713 1.6783570316248325e-19 4.718117972710864e-12 4.718117524587722e-12 4.48123143919739e-19
1.06003981227728 1.6814941794807973e-19 4.731370719768322e-12 4.731370261794041e-12 4.579742804843342e-19
1.0620293250338977 1.6877723922554892e-19 4.757949415025868e-12 4.757948936724809e-12 4.783010583627849e-19
1.0660195594769086 1.700344407168392e-19 4.811400439833763e-12 4.811399918263019e-12 5.215707448923772e-19
1.070024785945596 1.7129370661655246e-19 4.86524458496499e-12 4.865244016399575e-12 5.68565415575346e-19
1.0740450607676866 1.7255502123602626e-19 4.919483822955598e-12 4.919483203367314e-12 6.195882845388448e-19
1.07808044048254 1.7381837041737163e-19 4.974120176887042e-12 4.9741195019213175e-12 6.749657238361527e-19
1.0861967418109137 1.7634921005373737e-19 5.0845374140760725e-12 5.084536613860431e-12 8.002156414030246e-19
1.0902777775684922 1.7761232991235074e-19 5.140196299739766e-12 5.140195428867566e-12 8.708721984589028e-19
1.0943741465085532 1.7887736935893888e-19 5.19625741350779e-12 5.196256466052851e-12 9.474549389924752e-19
1.1026131145906286 1.8141318559340665e-19 5.309595497025277e-12 5.3095943767153794e-12 1.120309898362308e-18
1.1109141095355224 1.8395663289848272e-19 5.4245706206041394e-12 5.424569297639818e-12 1.3229643210049453e-18
1.1192775983109025 1.8650574594670458e-19 5.541144312922253e-12 5.541142752684323e-12 1.5602379299306796e-18
1.1277040513999907 1.8905151421991696e-19 5.65906567353353e-12 5.659063835858347e-12 1.837675183808366e-18
1.1361939428280308 1.9160471409850648e-19 5.778672641858196e-12 5.778670480212536e-12 2.1616456607745077e-18
1.1447477501889525 1.9416543672148133e-19 5.899988371228493e-12 5.8999858317718645e-12 2.5394566295560797e-18
1.1533659546722406 1.967346768030677e-19 6.023063985561932e-12 6.023061006077957e-12 2.9794839738970868e-18
1.1707974979042381 2.0190648909199864e-19 6.274823230107008e-12 6.274819144186281e-12 4.0859207276006114e-18
1.1884924949847024 2.0711419183126945e-19 6.533948923153606e-12 6.533943348116029e-12 5.575037577053429e-18
1.2064549276569216 2.1239262887334324e-19 6.801739189704342e-12 6.801731620563932e-12 7.569140411027465e-18
1.2246888378427687 2.1770929111792505e-19 7.077374163941307e-12 7.0773639380068706e-12 1.0225934438244708e-17
1.2431983285522175 2.2306038700989535e-19 7.360923461367624e-12 7.360909713323186e-12 1.3748044436969125e-17
1.2619875648066055 2.284543665282084e-19 7.652863583902326e-12 7.652845189413765e-12 1.839448856178287e-17
1.3004222497298317 2.393410279605178e-19 8.261729595716514e-12 8.261697131879497e-12 3.246383701721222e-17
1.3400274889804893 2.5040496177844123e-19 8.906889628202706e-12 8.906833387852556e-12 5.624035015004146e-17
1.3808389325824078 2.6168822571533826e-19 9.591723239516281e-12 9.59162755581338e-12 9.56837029008712e-17
1.4228933163050095 2.732825152135631e-19 1.0321756717351615e-11 1.0321596766626731e-11 1.5995072488048906e-16
1.466228494730424 2.8537856841694526e-19 1.1106889301085187e-11 1.110662644927104e-11 2.6285181415028823e-16
1.5108834753276823 2.9794990337423205e-19 1.1949332702936002e-11 1.194890788347786e-11 4.248194581410098e-16
1.5568984535646726 3.1097894683064683e-19 1.2851703834577034e-11 1.285102786384643e-11 6.759707306036657e-16
1.6043148490894465 3.245256928660671e-19 1.3820002515643207e-11 1.3818941553697927e-11 1.0609619452813885e-15
1.6531753430134553 3.3864942499214005e-19 1.486068042091606e-11 1.485903983589436e-11 1.6405850216968994e-15
1.7035239163302658 3.534153518135218e-19 1.5980967888683147e-11 1.5978467973506704e-11 2.499915176441028e-15
1.755405889504358 3.6905066076667366e-19 1.7196219159598736e-11 1.7192463417126734e-11 3.7557424720030726e-15
1.8088679632656115 3.855153101833671e-19 1.8510490635361688e-11 1.850492566448251e-11 5.564970879172722e-15
1.8639582606462262 4.027524070033679e-19 1.9927084420968912e-11 1.991894866493342e-11 8.135756035492953e-15
1.9207263702978936 4.2075132103890425e-19 2.145163605845873e-11 2.1439896208237824e-11 1.1739850220910591e-14
1.979223391128241 4.395160495536189e-19 2.3090800367490895e-11 2.3074073192387777e-11 1.6727175103121837e-14
2.039501978296691 4.590294087646646e-19 2.4850439527131274e-11 2.48268982251155e-11 2.3541302015773083e-14
2.1016163906111602 4.793999803952086e-19 2.674366305167206e-11 2.6710924235544065e-11 3.273881612799446e-14
2.1656225393682647 5.006212218810532e-19 2.8778055894397954e-11 2.8733050280083252e-11 4.500561431471167e-14
2.231578038680979 5.225258478542247e-19 3.095204089099599e-11 3.089086589143308e-11 6.117499956290795e-14
2.299542257339062 5.450130834313566e-19 3.326731540758381e-11 3.318506944156584e-11 8.224596601797653e-14
2.369576372248914 5.680231834530288e-19 3.572779429485682e-11 3.5618392209369434e-11 1.0940208548738759e-13
2.4417434235010123 5.915070643689831e-19 3.8337994920175655e-11 3.8193971182064195e-11 1.440237381114705e-13
2.5161083711144245 6.155117375621957e-19 4.110882984617009e-11 4.092112461164694e-11 1.8770523452314524e-13
2.5927381535095444 6.402102837896144e-19 4.406063355501514e-11 4.381837198986239e-11 2.422615651527481e-13
2.6717017477616296 6.657208261383174e-19 4.7211690462905784e-11 4.6901972700303044e-11 3.097177626027431e-13
2.753070231689431 6.9228818080726465e-19 5.05910438907199e-11 5.019874001228759e-11 3.9230387843229247e-13
2.836916847834745 7.208421564593048e-19 5.428204700327221e-11 5.378958847383723e-11 4.92458529434988e-13
2.9233170693905177 7.535861175432576e-19 5.847607909294202e-11 5.786340460121505e-11 6.126744917269604e-13
2.967498994190263 7.737607416236882e-19 6.094901685540128e-11 6.026930910968355e-11 6.797077457177163e-13
3.0123486681368425 7.952385469574664e-19 6.35875503557399e-11 6.28344368430372e-11 7.531135127026799e-13
3.0578761833420214 8.3188230920566895e-19 6.75229205021675e-11 6.668927776268526e-11 8.336427394822635e-13
3.1040917844459814 8.748629409690235e-19 7.208485143189232e-11 7.116391908811086e-11 9.209323437814362e-13
3.127460860933648 9.158484198262306e-19 7.602998710761093e-11 7.506245336990541e-11 9.675337377055242e-13
3.1510058709225794 9.681518667587713e-19 8.097708379421696e-11 7.99610731442944e-11 1.0160106499225532e-12
3.162844764501044 1.016108004216666e-18 8.530749362250116e-11 8.426643375416164e-11 1.0410598683395049e-12
3.1747281389236908 1.0703328110022186e-18 9.019756498694538e-11 8.913097300835117e-11 1.0665919785942077e-12
3.1986289994194426 1.2173535580089298e-18 1.0335941266348183e-10 1.0224015221999733e-10 1.1192604434845359e-12
3.2227097969389145 1.5596794465734643e-18 1.3342154992437656e-10 1.322465795833485e-10 1.174970341028083e-12
3.2348180950136065 1.8812971832399703e-18 1.6153874410906246e-10 1.6033406842113125e-10 1.204675687931166e-12
3.240889293275058 2.12175898512387e-18 1.825280773031262e-10 1.8130773255656098e-10 1.220344746565129e-12
3.2469718861334385 2.4005374752328593e-18 2.0689807576320236e-10 2.0566151820165679e-10 1.2365575615456094e-12
3.2714166318528037 3.8608364621634994e-18 3.3526382570929225e-10 3.3396034996997036e-10 1.303475739321817e-12
3.2744851364798273 3.9518285419912424e-18 3.434871938963361e-10 3.4217585523963267e-10 1.311338656703436e-12
3.2775565192852394 4.0452342861214244e-18 3.5193568270844427e-10 3.506164439377838e-10 1.319238770660402e-12
3.283707930232385 3.954230884247447e-18 3.446640434441914e-10 3.433307239510476e-10 1.3333194931438813e-12
3.2898708863219004 3.666871134309008e-18 3.202166684651867e-10 3.188705781026683e-10 1.346090362518395e-12
3.29141343181113 3.598940558859334e-18 3.144318594081366e-10 3.130825633001182e-10 1.349296108018232e-12
3.292184975758714 3.565537300424365e-18 3.115865092750375e-10 3.102356083386897e-10 1.3509009363479145e-12
3.295272960557952 3.3577592907915273e-18 2.937043557056466e-10 2.9234722049078497e-10 1.3571352148616025e-12
3.3076538914384823 2.6319161862884513e-18 2.310795681802846e-10 2.296974144528408e-10 1.3821537274438024e-12
3.310756385682612 2.482464552926215e-18 2.1816230542502433e-10 2.1677384994263813e-10 1.3884554823861929e-12
3.313861789986515 2.3438968387294094e-18 2.0617799778736893e-10 2.0478322168888615e-10 1.3947760984827569e-12
3.3200813396944477 2.1502747817019582e-18 1.8950126716226337e-10 1.880928756801932e-10 1.4083914820701474e-12
3.345076488085796 1.8114968949712015e-18 1.6084704243539714e-10 1.5937791948462544e-10 1.4691229507717337e-12
3.3482140837626964 1.824926396583304e-18 1.6219146812805048e-10 1.607141156536049e-10 1.4773524744455923e-12
3.3513546224236106 1.8384755133892374e-18 1.6354891522778607e-10 1.6206329846042787e-10 1.4856167673582466e-12
3.3576445397418455 1.9348256625174708e-18 1.7244316660924663e-10 1.709402632767191e-10 1.5029033325275499e-12
3.3702598118196083 2.2841825954760463e-18 2.0434481986998166e-10 2.0280566071647145e-10 1.5391591535101231e-12
3.382922481734668 2.3668465315327626e-18 2.1253554747859206e-10 2.1096122171664427e-10 1.5743257619478054e-12
3.389271646505754 2.409438361314888e-18 2.1676623383364982e-10 2.1517409753757809e-10 1.5921362960716797e-12
3.395632727569191 2.4564401372274274e-18 2.214095395360437e-10 2.1979904827207896e-10 1.6104912639647416e-12
3.421196662673239 2.685083405110045e-18 2.438401704431456e-10 2.421537764322073e-10 1.6863940109382613e-12
3.4276182099114902 2.642928484609009e-18 2.404624602171519e-10 2.387592076685913e-10 1.7032525485605253e-12
3.4340518103208963 2.4536210587126877e-18 2.2365765475808483e-10 2.2193849609065602e-10 1.7191586674287952e-12
3.4469541582030403 2.181485327628298e-18 1.995984833827378e-10 1.9784887408339503e-10 1.7496092993426748e-12
3.472904465399547 2.103738717064496e-18 1.9393405105609054e-10 1.921141740487343e-10 1.8198770073563345e-12
3.4990501388274233 1.9877847664080326e-18 1.8462434039210566e-10 1.8273273238370675e-10 1.891608008398923e-12
3.5253949054701885 1.5839971063295628e-18 1.482284575833696e-10 1.462674460135966e-10 1.9610115697729448e-12
3.5519380250092896 1.199475319423685e-18 1.1309050121217518e-10 1.1105995951202233e-10 2.0305417001528835e-12
3.578680990867387 1.0487281080759738e-18 9.962201635628811e-11 9.751529415458642e-11 2.106722201701668e-12
3.605625307711299 9.899634604131544e-19 9.47478124012799e-11 9.256099260684395e-11 2.1868197944359515e-12
3.660119384959845 9.510183613565627e-19 9.239608854059272e-11 9.004161049407903e-11 2.3544780465137023e-12
3.715437065384467 9.237031846030776e-19 9.109861688462744e-11 8.856829443014991e-11 2.53032245447753e-12
3.8285932144167436 9.161339144310106e-19 9.310384545531261e-11 9.019873294662122e-11 2.905112508691388e-12
3.94519561050918 9.195443099956958e-19 9.62965295287247e-11 9.298741189535196e-11 3.309117633372742e-12
4.06534921144712 9.261831225863417e-19 9.99457089731671e-11 9.620493341061633e-11 3.740775562550756e-12
4.189162171576248 9.337954833198789e-19 1.0383610171336407e-10 9.963628877012971e-11 4.1998129432343574e-12
4.316745939156006 9.414527902655935e-19 1.078759092131962e-10 1.031926372833666e-10 4.683271929829623e-12
4.448215356677963 9.487629162154242e-19 1.1202448072138689e-10 1.0684146359734575e-10 5.183017124041099e-12
4.58368876423945 9.556920520302392e-19 1.1627933204288002e-10 1.1058076803264022e-10 5.698564010239792e-12
4.723288106065518 9.624401736972587e-19 1.2066674920453924e-10 1.1443460596243121e-10 6.232143242107999e-12
4.867139040275056 9.692674148317617e-19 1.2522377697309635e-10 1.184564803229214e-10 6.76729665017498e-12
4.940699165968905 9.733313793380424e-19 1.2764933859230907e-10 1.2061241572221146e-10 7.036922870097617e-12
5.015371051989984 9.769723642672191e-19 1.3006330362202846e-10 1.2275642198075144e-10 7.306881641277035e-12
5.091171501069577 9.821144901270867e-19 1.3272394400589951e-10 1.251405011896747e-10 7.583442816224812e-12
5.129500256944802 9.845115918746903e-19 1.340495384372307e-10 1.2632810082214862e-10 7.721437615082099e-12
5.168117569889187 9.869661454320421e-19 1.3539545119749838e-10 1.2753465574245594e-10 7.860795455042449e-12
5.20702561229733 9.907893607048152e-19 1.369432029553203e-10 1.2892891904006792e-10 8.014283915252441e-12
5.246226572918644 9.945416892220899e-19 1.3849671373476525e-10 1.3032877010299542e-10 8.167943631769837e-12
5.265937586045735 9.963922938763163e-19 1.3927574828145767e-10 1.3103093731559417e-10 8.244810965863522e-12
5.285722656980489 9.982264307370948e-19 1.4005637118127083e-10 1.3173468226120257e-10 8.321688920068296e-12
5.305582063971359 1.000044545528654e-18 1.408386374638693e-10 1.324400707991124e-10 8.398566664756905e-12
5.3255160863122235 1.0021164765469874e-18 1.4166068472615936e-10 1.3318453504998506e-10 8.47614967617425e-12
5.365609099470188 1.0082969677700242e-18 1.4360743460013715e-10 1.3497064854260273e-10 8.636786057534418e-12
5.406003951863644 1.0145241070297694e-18 1.4558216145302092e-10 1.3678462944786942e-10 8.797532005151506e-12
5.446702915881641 1.0208088152503528e-18 1.4758680551853165e-10 1.3862850499220036e-10 8.958300526331303e-12
5.487708281020852 1.0276707859061689e-18 1.4969747005911626e-10 1.4057766537802837e-10 9.119804681087886e-12
5.529022354014368 1.0391262984403406e-18 1.5250571370078682e-10 1.432175412838984e-10 9.288172416888386e-12
5.570647458961463 1.0509941395724199e-18 1.554087267147035e-10 1.4595212689688828e-10 9.456599817815214e-12
5.612585937458331 1.0633170261169275e-18 1.5841459990316095e-10 1.4878960127056264e-10 9.62499863259827e-12
5.654840148729818 1.0768990769242733e-18 1.6164592863163435e-10 1.5185167634359582e-10 9.794252288038561e-12
5.67608639626678 1.087252452271447e-18 1.6381317438825915e-10 1.5393014187832506e-10 9.8830325099341e-12
5.686739436050992 1.0925498852912347e-18 1.6492027045679007e-10 1.549928390766611e-10 9.927431380128946e-12
5.6974124697621304 1.0979307099607804e-18 1.660435567391662e-10 1.5607172252099424e-10 9.971834218171918e-12
5.718818669136295 1.1089515470998544e-18 1.6834039056869734e-10 1.5827974440148625e-10 1.0060646167211086e-11
5.740305295436557 1.1212749220887777e-18 1.708506096512877e-10 1.6070039389493765e-10 1.015021575635006e-11
5.7835210386641895 1.1549132947664997e-18 1.773009789612494e-10 1.6696577001383219e-10 1.0335208947417172e-11
5.827062130521658 1.1933445562471506e-18 1.8458012599184114e-10 1.7405795277290906e-10 1.0522173218932043e-11
5.8489554468988025 1.2218167454690717e-18 1.8969409822256535e-10 1.7907028460384217e-10 1.0623813618723119e-11
5.870931020387893 1.2520146918481222e-18 1.9511283349643248e-10 1.8438722751029098e-10 1.0725605986141589e-11
5.892989160043636 1.284076043006477e-18 2.0086109165401082e-10 1.9003355291583682e-10 1.0827538738174066e-11
5.915130176081913 1.3206750590650756e-18 2.0736225930136957e-10 1.9642883228112807e-10 1.0933427020241462e-11
5.95966208400165 1.425779932051641e-18 2.2555038173324155e-10 2.143718682564015e-10 1.1178513476840051e-11
6.004529249263818 1.5782734181127505e-18 2.515536595744443e-10 2.4009718084210365e-10 1.1456478732340623e-11
6.027089341400364 1.6851746981254014e-18 2.6960130625378656e-10 2.579823271489346e-10 1.1618979104851897e-11
6.049734195844842 1.8106457407518503e-18 2.9076304886994046e-10 2.789715203119082e-10 1.1791528558032168e-11
6.095279466722835 2.174408423143823e-18 3.518067577857033e-10 3.3958472488313394e-10 1.2222032902569384e-11
6.141167624020661 2.7308087155299864e-18 4.451554194591776e-10 4.3236675784988355e-10 1.2788661609294038e-11
6.164241091010745 3.0852835422236883e-18 5.048288101277088e-10 4.91680738804961e-10 1.3148071322748025e-11
6.187401249150058 3.483864835078695e-18 5.721883496540905e-10 5.586719572604347e-10 1.351639239365554e-11
6.1990139391386085 3.6770563193264026e-18 6.050514801701814e-10 5.913478073575856e-10 1.3703672812595719e-11
6.204828454712694 3.778390328363411e-18 6.223089298817357e-10 6.085107425096888e-10 1.379818737204701e-11
6.210648424152782 3.851229922815707e-18 6.349007286246052e-10 6.210228415592833e-10 1.387788706532194e-11
6.233982942956859 4.094018346911037e-18 6.774618243027512e-10 6.63309561795115e-10 1.4152262507636157e-11
6.239830258556775 4.1223094860728125e-18 6.827831620441924e-10 6.68595469646911e-10 1.4187692397281693e-11
6.245683058788269 4.120281794328284e-18 6.830874310007254e-10 6.688642793972382e-10 1.4223151603487255e-11
6.257405133728602 4.103315819106591e-18 6.815514588101468e-10 6.672677835882802e-10 1.428367522186663e-11
6.269149208991335 4.042578976329609e-18 6.727234280368985e-10 6.584249883236852e-10 1.429843971321339e-11
6.280915325867298 3.90552386648815e-18 6.511359408049116e-10 6.368792185044747e-10 1.4256722300436738e-11
6.304513850009849 3.573974057708234e-18 5.980981126618033e-10 5.839757628915617e-10 1.4122349770241718e-11
6.32820103803542 3.1718495647106488e-18 5.327976271262008e-10 5.188638265693869e-10 1.3933800556813773e-11
6.3519772230701035 2.8054210476955868e-18 4.730166370828065e-10 4.5925396198014884e-10 1.3762675102657787e-11
6.375842739491607 2.4966009053945245e-18 4.225286415047975e-10 4.0891913181023196e-10 1.3609509694565448e-11
6.399797922933955 2.2508038273670727e-18 3.8236078023430224e-10 3.688404216888916e-10 1.3520358545410588e-11
6.42384311029221 2.045585269688313e-18 3.488043932662179e-10 3.353603325255699e-10 1.344406074064799e-11
6.447978639727206 1.8956648976073644e-18 3.244550897838306e-10 3.110376292343556e-10 1.3417460549475008e-11
6.472204850670314 1.7700039128602733e-18 3.0408564166902894e-10 2.906849675222413e-10 1.3400674146787617e-11
6.496522083828205 1.6868385512965785e-18 2.908867035321021e-10 2.774627450442205e-10 1.3423958487881542e-11
6.520930681187647 1.6160512571499376e-18 2.7972684566542775e-10 2.662737080440062e-10 1.3453137621421619e-11
