Dust emission spectrum from A.P. Jones, M. Kohler, N. Ysard, M. Bocchio, and L. Verstraete (2017), A&A, 602A, 46J 
inside the DustPedia framework.

lambda    nu*dP/dnu     j_nu    j_nu(carb.) j_nu(sil)
 (um)   (erg s-1 H-1) (Jy cm2 sr-1 H-1)
0.9927057738263894 1.4511232411495356e-25 3.823792162583671e-18 3.8237921583204075e-18 4.26326431942557e-27
1.0001793341362166 1.475150073925522e-25 3.916368197536988e-18 3.916368192403302e-18 5.133685513288612e-27
1.0077091589558085 1.4991580313244815e-25 4.010070931128139e-18 4.0100709249543904e-18 6.173750541575499e-27
1.0114953028030835 1.5111521931030378e-25 4.057340995734367e-18 4.0573409889673735e-18 6.766994086376321e-27
1.0152956718711033 1.5231383599035452e-25 4.104888110172869e-18 4.1048881027580554e-18 7.41481265833844e-27
1.0229392996569957 1.5470706336978915e-25 4.2007751805600814e-18 4.2007751716662856e-18 8.893795492643649e-27
1.0267826658714554 1.5589879341878992e-25 4.249038980743773e-18 4.249038971007735e-18 9.736038093139553e-27
1.0306404723013447 1.5708923368122745e-25 4.2975708672592896e-18 4.297570856604745e-18 1.0654543717155717e-26
1.03451277320114 1.582782785582639e-25 4.34636914094326e-18 4.346369129287385e-18 1.1655875018707699e-26
1.0383996230291617 1.5946582313522387e-25 4.395432082649619e-18 4.3954320699024904e-18 1.2747127621982358e-26
1.0403485208654093 1.6005900021800735e-25 4.4200622614590255e-18 4.420062248130178e-18 1.3328847438136026e-26
1.0423010764483396 1.6065176320428508e-25 4.444757953839094e-18 4.444757939903125e-18 1.3935970623812552e-26
1.0462171883269815 1.618359952867441e-25 4.494344997172032e-18 4.494344981941342e-18 1.5230689944490678e-26
1.0471985131304309 1.6213177437923613e-25 4.506782358472561e-18 4.506782342900615e-18 1.5571946408195608e-26
1.048180758391296 1.624274387006544e-25 4.519235904229522e-18 4.519235888309e-18 1.5920522586159348e-26
1.0501480137395462 1.630184166548536e-25 4.544191437104316e-18 4.5441914204640795e-18 1.6640234709431635e-26
1.0521189612883777 1.6360891642922267e-25 4.569211371107213e-18 4.569211353716157e-18 1.739105671856514e-26
1.0531058218030118 1.6390353702563972e-25 4.581732950282546e-18 4.581732932503988e-18 1.77785569118146e-26
1.0540936079674168 1.6419657205947684e-25 4.5942296351901964e-18 4.594229617015792e-18 1.817440401816545e-26
1.058054026499678 1.6536737748217684e-25 4.644373265027013e-18 4.6443732451831615e-18 1.9843851580443539e-26
1.0590464539527713 1.6565973737159927e-25 4.6569482506998415e-18 4.656948230416235e-18 2.028360768070286e-26
1.06003981227728 1.6595195757088247e-25 4.669538809712394e-18 4.669538788979709e-18 2.0732685064812704e-26
1.0620293250338977 1.6653597271854851e-25 4.694766531392793e-18 4.694766509733234e-18 2.165955880039932e-26
1.0660195594769086 1.6770225893693696e-25 4.745407571599023e-18 4.745407547965351e-18 2.363367183871681e-26
1.070024785945596 1.6886613817930577e-25 4.7962945083554314e-18 4.7962944825761465e-18 2.5779286047015981e-26
1.0740450607676866 1.7002751338017969e-25 4.8474254503845525e-18 4.847425422274037e-18 2.811051513590813e-26
1.07808044048254 1.7118628838514898e-25 4.898798493038186e-18 4.89879846239562e-18 3.064256498613993e-26
1.0861967418109137 1.734936431729692e-25 5.002205110805547e-18 5.002205074429652e-18 3.6375893545358625e-26
1.0902777775684922 1.746374539563398e-25 5.0541017904857186e-18 5.054101750871926e-18 3.9613791669448927e-26
1.0943741465085532 1.757782092812391e-25 5.106229068462755e-18 5.106229025336841e-18 4.3125913216333454e-26
1.1026131145906286 1.780501914557148e-25 5.2111674887655516e-18 5.211167437703245e-18 5.106230515320424e-26
1.1109141095355224 1.803088758761316e-25 5.31700442273038e-18 5.317004362349163e-18 6.038121909386883e-26
1.1192775983109025 1.8255150972116792e-25 5.423662712224842e-18 5.42366264091578e-18 7.130906108201168e-26
1.1277040513999907 1.8476796858372017e-25 5.5308420717769355e-18 5.530841987670132e-18 8.41068032616431e-26
1.1361939428280308 1.869687965625732e-25 5.638856406329483e-18 5.6388563072546535e-18 9.907482911933827e-26
1.1447477501889525 1.8915335531565982e-25 5.747689267385331e-18 5.7476891508268885e-18 1.1655844294696754e-25
1.1533659546722406 1.9132216138002919e-25 5.85735894949229e-18 5.857358812538043e-18 1.3695424590106392e-25
1.1707974979042381 1.9561946043820227e-25 6.079435783063568e-18 6.0794355946948706e-18 1.8836869682130857e-25
1.1884924949847024 1.9984581416961358e-25 6.304649289094055e-18 6.304649031297227e-18 2.5779682683315467e-25
1.2064549276569216 2.0403365832547596e-25 6.534048461157836e-18 6.534048110072658e-18 3.510851782018891e-25
1.2246888378427687 2.0813985817420345e-25 6.7662874981784816e-18 6.7662870223738496e-18 4.758046301678696e-25
1.2431983285522175 2.1215570947379493e-25 7.00107249100878e-18 7.001071849283849e-18 6.417249303926703e-25
1.2619875648066055 2.1608080441410027e-25 7.238368626571237e-18 7.238367765182312e-18 8.613889255175955e-25
1.3004222497298317 2.235997850338903e-25 7.718363112884601e-18 7.718361582574787e-18 1.5303098145039053e-24
1.3400274889804893 2.3067588065206096e-25 8.20512738351521e-18 8.205124714374506e-18 2.6691407014508512e-24
1.3808389325824078 2.3729219790789585e-25 8.697529600376118e-18 8.697525027629277e-18 4.572746839040461e-24
1.4228933163050095 2.4348591958483375e-25 9.196352807611168e-18 9.196345109043316e-18 7.698567852794267e-24
1.466228494730424 2.4939860894128426e-25 9.706554899064376e-18 9.706542155642792e-18 1.2743421584874598e-23
1.5108834753276823 2.549395672573043e-25 1.0224395691358097e-17 1.0224374942401591e-17 2.074895650394356e-23
1.5568984535646726 2.60036925988878e-25 1.0746443104660816e-17 1.074640983914321e-17 3.326551760518132e-23
1.6043148490894465 2.6470761741595056e-25 1.1272635785136846e-17 1.1272583173555852e-17 5.261158099519966e-23
1.6531753430134553 2.6897238781436664e-25 1.1803099023282771e-17 1.1803017034681609e-17 8.198860116120219e-23
1.7035239163302658 2.728763147853014e-25 1.2339100726068826e-17 1.2338974800485479e-17 1.259255833444346e-22
1.755405889504358 2.766379853740561e-25 1.2890174520971134e-17 1.2889983808098957e-17 1.9071287217823726e-22
1.8088679632656115 2.802145283669547e-25 1.3454480966687671e-17 1.3454196058225578e-17 2.849084620895525e-22
1.8639582606462262 2.8357708622428706e-25 1.4030616425332736e-17 1.403019641269715e-17 4.200126355844379e-22
1.9207263702978936 2.8675669137067777e-25 1.4620037711165674e-17 1.4619426467113734e-17 6.112440519424144e-22
1.979223391128241 2.8981687165441315e-25 1.5226073162287062e-17 1.5225194686788237e-17 8.784754988231683e-22
2.039501978296691 2.928299261841353e-25 1.5852911019267437e-17 1.5851663744304927e-17 1.247274962511149e-21
2.1016163906111602 2.9599668580378994e-25 1.6512382046871106e-17 1.6510631831316747e-17 1.750215554356795e-21
2.1656225393682647 2.994312076966631e-25 1.7212710238778196e-17 1.7210282135829085e-17 2.4281029491078872e-21
2.231578038680979 3.031340910071567e-25 1.7956276840348766e-17 1.7952945461498317e-17 3.3313788504477224e-21
2.299542257339062 3.0716702664865576e-25 1.8749315693478303e-17 1.874479406175117e-17 4.521631727125626e-21
2.369576372248914 3.116704858309348e-25 1.960359951833996e-17 1.9597526269214716e-17 6.073249125247132e-21
2.4417434235010123 3.1680987942467247e-25 2.0533745545375177e-17 2.052567073033914e-17 8.074815036038256e-21
2.5161083711144245 3.228755280827139e-25 2.156422751256372e-17 2.155359661469603e-17 1.0630897867682952e-20
2.5927381535095444 3.3034671563645448e-25 2.2735163667792256e-17 2.272130027002173e-17 1.3863397770521202e-20
2.6717017477616296 3.397818184128807e-25 2.409669850481618e-17 2.4078786530841167e-17 1.7911973975013735e-20
2.753070231689431 3.5202373513531426e-25 2.5725194692821132e-17 2.5702259763484848e-17 2.2934929336286242e-20
2.836916847834745 3.690180760632672e-25 2.7788408836011527e-17 2.775929819663765e-17 2.91106393738716e-20
2.9233170693905177 3.9506357087632586e-25 3.0655777859360634e-17 3.0619146877691265e-17 3.6630981669373066e-20
2.967498994190263 4.157365185880604e-25 3.2747502833573336e-17 3.270661365343705e-17 4.088918013629241e-20
3.0123486681368425 4.395164844181222e-25 3.514389071309683e-17 3.509830910218503e-17 4.5581610911802596e-20
3.0578761833420214 4.901906315432935e-25 3.978820402637255e-17 3.9737444676602605e-17 5.0759349769944396e-20
3.1040917844459814 5.547160619594314e-25 4.570615926300369e-17 4.5649742734346123e-17 5.641652865757507e-20
3.127460860933648 6.218783848376459e-25 5.1625798066757726e-17 5.1566343553647976e-17 5.945451310976132e-20
3.1510058709225794 7.109038790324844e-25 5.946063314919062e-17 5.93980053692061e-17 6.262777998452591e-20
3.162844764501044 7.934858226183534e-25 6.661721635068096e-17 6.655294385587211e-17 6.427249480885088e-20
3.1747281389236908 8.89261376781218e-25 7.493857050640126e-17 7.487261807122697e-17 6.595243517430958e-20
3.1986289994194426 1.1556222785510291e-24 9.811811793381458e-17 9.804868929546224e-17 6.942863835234327e-20
3.2227097969389145 1.7822977281365694e-24 1.5246525549663673e-16 1.5239213643593112e-16 7.311906070566204e-20
3.2348180950136065 2.3759567592508005e-24 2.0401299399482236e-16 2.0393790373214396e-16 7.509026267844932e-20
3.240889293275058 2.8197566758623175e-24 2.425745657807386e-16 2.4249843572044924e-16 7.613006028929538e-20
3.2469718861334385 3.333271851179187e-24 2.872888005790134e-16 2.872115945896677e-16 7.720598934574886e-20
3.2714166318528037 6.068431590069868e-24 5.269649753053406e-16 5.268833173439652e-16 8.16579613754062e-20
3.2744851364798273 6.239486048491552e-24 5.423270598353938e-16 5.422448756213221e-16 8.218421407193008e-20
3.2775565192852394 6.415423751329557e-24 5.581423418501016e-16 5.580596286025197e-16 8.271324758205927e-20
3.283707930232385 6.2465637294241195e-24 5.444714726173327e-16 5.443878100615397e-16 8.36625557931057e-20
3.2898708863219004 5.710442591929703e-24 4.986755288835684e-16 4.985909994267213e-16 8.452945684708958e-20
3.29141343181113 5.583984106369258e-24 4.87860934837905e-16 4.877761876182916e-16 8.474721961357836e-20
3.292184975758714 5.521842732411219e-24 4.825448612059033e-16 4.824600049490095e-16 8.48562568938396e-20
3.295272960557952 5.1299896430916206e-24 4.487219518781196e-16 4.486366709259164e-16 8.528095220310865e-20
3.3076538914384823 3.771462951248498e-24 3.31130616819319e-16 3.310436285423207e-16 8.698827699833144e-20
3.310756385682612 3.494684552119911e-24 3.071175528871123e-16 3.0703013394460617e-16 8.74189425060495e-20
3.313861789986515 3.2392025471511875e-24 2.8493246143094327e-16 2.8484461028450734e-16 8.785114643599961e-20
3.3200813396944477 2.8810784298435117e-24 2.5390616022435605e-16 2.538173808174945e-16 8.877940686155096e-20
3.345076488085796 2.243650520786095e-24 1.9921897273404887e-16 1.9912606005978396e-16 9.291267426490766e-20
3.3482140837626964 2.26780195648647e-24 2.015523088683735e-16 2.0145883640641274e-16 9.347246196076987e-20
3.3513546224236106 2.292215995707565e-24 2.0391320789181554e-16 2.0381917295020373e-16 9.403494161175864e-20
3.3576445397418455 2.4696953939059853e-24 2.2011393715508637e-16 2.2001872672081004e-16 9.521043427636789e-20
3.3702598118196083 3.123066362672038e-24 2.7939203922933877e-16 2.7929436278655816e-16 9.767644278063083e-20
3.382922481734668 3.2727820428208397e-24 2.938857733199013e-16 2.9378569399263165e-16 1.0007932726957282e-19
3.389271646505754 3.350310884244907e-24 3.014122644554103e-16 3.013109660042036e-16 1.0129845120670385e-19
3.395632727569191 3.434023057188802e-24 3.095233025733351e-16 3.094207476922917e-16 1.0255488104339126e-19
3.421196662673239 3.8363843812061e-24 3.4839313356836976e-16 3.4828537090768577e-16 1.0776266068395906e-19
3.4276182099114902 3.756457636028859e-24 3.4177506130841703e-16 3.416661299261989e-16 1.0893138221813698e-19
3.4340518103208963 3.404423705813011e-24 3.103272280538928e-16 3.1021718810005977e-16 1.1003995383304712e-19
3.4469541582030403 2.9027316000742963e-24 2.655900627449454e-16 2.654778885689299e-16 1.1217417601547199e-19
3.472904465399547 2.7627242816729796e-24 2.54682916442918e-16 2.5456583505445154e-16 1.1708138846646678e-19
3.4990501388274233 2.54848753051437e-24 2.367021003833067e-16 2.365799823741627e-16 1.2211800914409258e-19
3.5253949054701885 1.784785964113791e-24 1.670180264344445e-16 1.6689099160034092e-16 1.2703483410359574e-19
3.5519380250092896 1.0658945935211553e-24 1.0049606846314483e-16 1.003640723863024e-16 1.3199607684243022e-19
3.578680990867387 7.814457974725324e-25 7.423202011833704e-17 7.409458300703939e-17 1.3743711129767098e-19
3.605625307711299 6.67116735535029e-25 6.38486710225121e-17 6.370549136029513e-17 1.4317966221697268e-19
3.660119384959845 5.851734451424307e-25 5.685246431189801e-17 5.669716634724925e-17 1.5529796464876192e-19
3.715437065384467 5.275460223130386e-25 5.202830711940854e-17 5.186015540738371e-17 1.6815171202480765e-19
3.8285932144167436 5.013974176081715e-25 5.0955462891772925e-17 5.0759408140623224e-17 1.960547511496944e-19
3.94519561050918 4.995472316572164e-25 5.231359078769896e-17 5.2086685981271166e-17 2.269048064278062e-19
4.06534921144712 5.07572467697443e-25 5.4772850964525887e-17 5.4512075550816025e-17 2.60775413709864e-19
4.189162171576248 5.2123949249547425e-25 5.796073971932239e-17 5.766289887665838e-17 2.97840842664017e-19
4.316745939156006 5.389502842770412e-25 6.175535569945527e-17 6.141726097438701e-17 3.380947250682619e-19
4.448215356677963 5.601535828243629e-25 6.613972064847818e-17 6.575858631192552e-17 3.811343365526543e-19
4.58368876423945 5.848920666037646e-25 7.116398915046487e-17 7.073685015867965e-17 4.2713899178521237e-19
4.723288106065518 6.136500853943951e-25 7.693689745844041e-17 7.64603768169391e-17 4.765206415012713e-19
4.867139040275056 6.473993665358226e-25 8.364027578671588e-17 8.311203844269811e-17 5.282373440177578e-19
4.940699165968905 6.674156763188969e-25 8.752945960314832e-17 8.697430116491451e-17 5.551584382338259e-19
5.015371051989984 6.879968243555127e-25 9.159229383551656e-17 9.100955898728668e-17 5.827348482298685e-19
5.091171501069577 7.128535729750634e-25 9.633575174285916e-17 9.572422882718507e-17 6.1152291567406885e-19
5.129500256944802 7.255475942525984e-25 9.878941083731113e-17 9.816325723934571e-17 6.26153597965422e-19
5.168117569889187 7.387367853610802e-25 1.0134248356246176e-16 1.007014206608028e-16 6.410629016589142e-19
5.20702561229733 7.548642324089667e-25 1.0433451335100798e-16 1.0367729097228324e-16 6.572223787247622e-19
5.246226572918644 7.713499431352342e-25 1.0741574075923131e-16 1.0674215114625645e-16 6.735896129748475e-19
5.265937586045735 7.797307913970472e-25 1.0899079619276673e-16 1.0830894592085188e-16 6.818502719148448e-19
5.285722656980489 7.882056454637282e-25 1.1058936033854188e-16 1.0989919852433108e-16 6.901618142107952e-19
5.305582063971359 7.967760565261689e-25 1.1221185562855033e-16 1.1151333175651534e-16 6.985238720349698e-19
5.3255160863122235 8.059739742567354e-25 1.1393368708803942e-16 1.132266947699336e-16 7.069923181058081e-19
5.365609099470188 8.288644354988015e-25 1.1805162468803807e-16 1.1732710779478892e-16 7.245168932491443e-19
5.406003951863644 8.525528722576632e-25 1.2233961621634473e-16 1.2159735029313039e-16 7.42265923214379e-19
5.446702915881641 8.770784194637695e-25 1.2680650890162434e-16 1.2604627215997815e-16 7.6023674164617205e-19
5.487708281020852 9.035205065041097e-25 1.31612901548946e-16 1.3083440900437204e-16 7.784925445739319e-19
5.529022354014368 9.403279317984627e-25 1.3800572901191252e-16 1.3720818238724596e-16 7.975466246665939e-19
5.570647458961463 9.791869709540925e-25 1.4479072208101228e-16 1.4397387580264166e-16 8.168462783706365e-19
5.612585937458331 1.0202460899300822e-24 1.5199782583116988e-16 1.511614367766059e-16 8.363890545639897e-19
5.654840148729818 1.0652891866739921e-24 1.599032476961301e-16 1.5904699221700667e-16 8.56255479123402e-19
5.67608639626678 1.0960514096008988e-24 1.6513888777564495e-16 1.6427224717119646e-16 8.666406044485503e-19
5.686739436050992 1.1118897555247482e-24 1.6783962148364053e-16 1.669677625005911e-16 8.718589830494023e-19
5.6974124697621304 1.128042649290323e-24 1.7059748119107432e-16 1.6972038666152968e-16 8.770945295446121e-19
5.718818669136295 1.161322377595595e-24 1.7629035563535517e-16 1.754027386399213e-16 8.876169954339704e-19
5.740305295436557 1.197999785113587e-24 1.8254131044639774e-16 1.8164303279758885e-16 8.982776488088731e-19
5.7835210386641895 1.2932758289510618e-24 1.9854223826066887e-16 1.9762188673185246e-16 9.203515288163993e-19
5.827062130521658 1.4027798566425501e-24 2.1697445328964438e-16 2.1603155597444137e-16 9.42897315203045e-19
5.8489554468988025 1.4798058660772306e-24 2.297483974998346e-16 2.28793368525401e-16 9.550289744336074e-19
5.870931020387893 1.5623187272873052e-24 2.4347033280863767e-16 2.4250307727408906e-16 9.672555345486695e-19
5.892989160043636 1.6507579269347926e-24 2.5821916160378187e-16 2.572395846358594e-16 9.7957696792252e-19
5.915130176081913 1.751301855668969e-24 2.7497597309612253e-16 2.7398363430387266e-16 9.923387922498725e-19
5.95966208400165 2.0327993875243255e-24 3.215774521271666e-16 3.2055629495165575e-16 1.0211571755108708e-18
6.004529249263818 2.438379700409218e-24 3.8864199956141964e-16 3.8758854474343386e-16 1.0534548179857228e-18
6.027089341400364 2.7204088984870063e-24 4.352224095177721e-16 4.341504247300765e-16 1.0719847876955495e-18
6.049734195844842 3.0533390211559513e-24 4.903212942451216e-16 4.892297044262355e-16 1.0915898188860589e-18
6.095279466722835 4.015205103582618e-24 6.496370572800054e-16 6.484977370932355e-16 1.1393201867698538e-18
6.141167624020661 5.494397494252364e-24 8.956543925320966e-16 8.944536899517754e-16 1.2007025803215404e-18
6.164241091010745 6.439225909701665e-24 1.0536168587588839e-15 1.0523779066838352e-15 1.2389520750487503e-18
6.187401249150058 7.514028760619461e-24 1.2341006093294958e-15 1.2328223011856914e-15 1.2783081438045876e-18
6.1990139391386085 8.038735551021523e-24 1.3227561455281812e-15 1.3214577949818877e-15 1.298350546293287e-18
6.204828454712694 8.315001141403954e-24 1.3694983875617244e-15 1.3681899053967709e-15 1.3084821649532084e-18
6.210648424152782 8.516615350850703e-24 1.4040203779153489e-15 1.4027031979231838e-15 1.3171799921650456e-18
6.233982942956859 9.200949411893394e-24 1.5225364045087104e-15 1.52118861843848e-15 1.3477860702299739e-18
6.239830258556775 9.288076951224125e-24 1.5383955453835078e-15 1.5370433018721926e-15 1.3522435113154755e-18
6.245683058788269 9.295086588752534e-24 1.5410006246612504e-15 1.5396439134353023e-15 1.3567112259481897e-18
6.257405133728602 9.275035551471639e-24 1.540562386445268e-15 1.5391977310891653e-15 1.3646553561033063e-18
6.269149208991335 9.138898158384327e-24 1.520799206047999e-15 1.5194310343828228e-15 1.368171665176704e-18
6.280915325867298 8.799332510373107e-24 1.4670404914844532e-15 1.4656742888920058e-15 1.3662025924476992e-18
6.304513850009849 7.962656030662411e-24 1.3325361255610728e-15 1.331178835814221e-15 1.3572897468514625e-18
6.32820103803542 6.926831927849445e-24 1.1635481252708356e-15 1.1622050416419514e-15 1.3430836288844648e-18
6.3519772230701035 5.9771764886001234e-24 1.007800210314397e-15 1.0064696554477944e-15 1.3305548666027582e-18
6.375842739491607 5.177794727011148e-24 8.762980768241785e-16 8.74978340286555e-16 1.3197365376235527e-18
6.399797922933955 4.537724566144506e-24 7.70857008728737e-16 7.695417669877081e-16 1.3152417410290268e-18
6.42384311029221 4.005140803312306e-24 6.829393663252105e-16 6.816273621509248e-16 1.312004174285759e-18
6.447978639727206 3.617168037538135e-24 6.191012883468602e-16 6.177875636368808e-16 1.3137247099794599e-18
6.472204850670314 3.293704763159016e-24 5.658565605965482e-16 5.645401182889948e-16 1.3164423075531864e-18
6.496522083828205 3.083414045410491e-24 5.317190234979071e-16 5.303958214390253e-16 1.3232020588819696e-18
