Dust emission spectrum from A.P. Jones, M. Kohler, N. Ysard, M. Bocchio, and L. Verstraete (2017), A&A, 602A, 46J 
inside the DustPedia framework.

lambda    nu*dP/dnu     j_nu    j_nu(carb.) j_nu(sil)
 (um)   (erg s-1 H-1) (Jy cm2 sr-1 H-1)
0.9927057738263894 1.6201228426645044e-24 4.269115711561348e-17 4.269115707317489e-17 4.2438583797080873e-26
1.0001793341362166 1.6468491677726806e-24 4.37221122162979e-17 4.372211216518499e-17 5.111290878563094e-26
1.0077091589558085 1.673543647777861e-24 4.4765318890357864e-17 4.476531882887738e-17 6.14804909614155e-26
1.0114953028030835 1.6868757733067785e-24 4.529146872820659e-17 4.5291468660811385e-17 6.739520706030618e-26
1.0152956718711033 1.7001961415552018e-24 4.58206234584867e-17 4.582062338463181e-17 7.385490348466336e-26
1.0229392996569957 1.7267834972489304e-24 4.688751178804003e-17 4.68875116994345e-17 8.860555485274145e-26
1.0267826658714554 1.7400182859493874e-24 4.7424392210304385e-17 4.7424392113297044e-17 9.700735667202725e-26
1.0306404723013447 1.75323565943777e-24 4.7964168624882015e-17 4.796416851871079e-17 1.0617120268465542e-25
1.03451277320114 1.7664343915233955e-24 4.850681975285683e-17 4.850681963669403e-17 1.1616280647846678e-25
1.0383996230291617 1.7796132634295295e-24 4.905232405914272e-17 4.9052323932089476e-17 1.2705323209724722e-25
1.0403485208654093 1.7861948730356033e-24 4.9326139355880024e-17 4.9326139223020773e-17 1.3285927341373002e-25
1.0423010764483396 1.792771064040016e-24 4.960065975853476e-17 4.960065961961547e-17 1.389193019189753e-25
1.0462171883269815 1.8059065901409097e-24 5.015180482178311e-17 5.0151804669939076e-17 1.5184403333016323e-25
1.0471985131304309 1.809186851043979e-24 5.02900274464013e-17 5.029002729115033e-17 1.5525098801011606e-25
1.048180758391296 1.812465626464988e-24 5.0428423915481165e-17 5.042842375675002e-17 1.5873114835862494e-25
1.0501480137395462 1.8190186466570545e-24 5.0705736981686984e-17 5.070573681576987e-17 1.6591710605070734e-25
1.0521189612883777 1.825565502642393e-24 5.098374120082368e-17 5.0983741027409445e-17 1.7341423937557007e-25
1.0531058218030118 1.8288315687724303e-24 5.112286172232383e-17 5.1122861545040094e-17 1.7728373420698442e-25
1.0540936079674168 1.8320796435044474e-24 5.1261694971122394e-17 5.1261694789885656e-17 1.8123672189773361e-25
1.058054026499678 1.8450549370620147e-24 5.181870785318884e-17 5.181870765527919e-17 1.9790966054397432e-25
1.0590464539527713 1.8482944183553225e-24 5.195837923508476e-17 5.1958379032782796e-17 2.0230196012238822e-25
1.06003981227728 1.8515321266346053e-24 5.209821715454464e-17 5.2098216947757115e-17 2.0678753178209248e-25
1.0620293250338977 1.858002152090507e-24 5.237839114575127e-17 5.2378390929705185e-17 2.160460642683414e-25
1.0660195594769086 1.8709201362282018e-24 5.294072147026347e-17 5.2940721234495725e-17 2.3576774673556707e-25
1.070024785945596 1.883807746585998e-24 5.3505675247656634e-17 5.3505674990450545e-17 2.572060676359311e-25
1.0740450607676866 1.8966638499502643e-24 5.407322870455511e-17 5.4073228424052474e-17 2.8050263068781993e-25
1.07808044048254 1.9094873229806017e-24 5.464335787949941e-17 5.464335757368939e-17 3.0581002869608727e-25
1.0861967418109137 1.935009376936855e-24 5.579059623020385e-17 5.579059586707635e-17 3.6312751613697425e-25
1.0902777775684922 1.94765446602609e-24 5.636616717082307e-17 5.636616677531778e-17 3.9550528079948193e-25
1.0943741465085532 1.9602616393968132e-24 5.69441741715865e-17 5.694417374095562e-17 4.306308818891816e-25
1.1026131145906286 1.985357990942313e-24 5.810739618627578e-17 5.810739567625127e-17 5.100245092646801e-25
1.1109141095355224 2.0102900477938216e-24 5.928006052477164e-17 5.928005992149216e-17 6.032794909362648e-25
1.1192775983109025 2.0350266013941253e-24 6.046127974085512e-17 6.046127902818315e-17 7.1267194300273215e-25
1.1277040513999907 2.0594539525360205e-24 6.164766898117608e-17 6.164766814034945e-17 8.408266407478026e-25
1.1361939428280308 2.083689693804658e-24 6.284271597576897e-17 6.284271498500295e-17 9.907660278431305e-25
1.1447477501889525 2.10772626051587e-24 6.404621047264252e-17 6.40462093066764e-17 1.1659660988925381e-24
1.1533659546722406 2.1315691591735427e-24 6.525833495131195e-17 6.525833358089093e-17 1.3704210146707204e-24
1.1707974979042381 2.1787511983996262e-24 6.771094229721434e-17 6.771094041111131e-17 1.8861030465056138e-24
1.1884924949847024 2.225063999865064e-24 7.019535647132423e-17 7.019535388835415e-17 2.582970081041509e-24
1.2064549276569216 2.2708683397026894e-24 7.272311785370617e-17 7.272311433367875e-17 3.520027431141823e-24
1.2246888378427687 2.315675972326782e-24 7.527885105155193e-17 7.527884627779605e-17 4.7737558828565725e-24
1.2431983285522175 2.3593869510738254e-24 7.78590362700012e-17 7.785902982705543e-17 6.442945724503702e-24
1.2619875648066055 2.40199097688186e-24 8.04629368884111e-17 8.046292823385903e-17 8.654552070378045e-24
1.3004222497298317 2.4832025158052604e-24 8.571680288918253e-17 8.571678749130959e-17 1.539787296155475e-23
1.3400274889804893 2.5590409541182576e-24 9.10249348515276e-17 9.102490795415047e-17 2.689737715118949e-23
1.3808389325824078 2.6292788225625325e-24 9.63716067721532e-17 9.637156061989223e-17 4.6152260939303254e-23
1.4228933163050095 2.6942931763470136e-24 1.0176223191499004e-16 1.017621540893101e-16 7.782567989474636e-23
1.466228494730424 2.7556258422393284e-24 1.072485272974146e-16 1.0724839825995905e-16 1.2903745554694495e-22
1.5108834753276823 2.8122170141257094e-24 1.1278445253408196e-16 1.1278424207758326e-16 2.1045649868730374e-22
1.5568984535646726 2.8632224627745034e-24 1.1832726131176102e-16 1.1832692331319776e-16 3.379985633229545e-22
1.6043148490894465 2.908793146321354e-24 1.2387163630904664e-16 1.2387110079486017e-16 5.355141864865696e-22
1.6531753430134553 2.9491234996552734e-24 1.2941401524956895e-16 1.2941317920190076e-16 8.360476681878205e-22
1.7035239163302658 2.984689689795218e-24 1.3496366200715815e-16 1.3496237553806984e-16 1.286469088320877e-21
1.755405889504358 3.0179062243737483e-24 1.4062182338228873e-16 1.4061987131997776e-16 1.9520623109167896e-21
1.8088679632656115 3.048278812198159e-24 1.4636289381173297e-16 1.4635997189061092e-16 2.9219211220119523e-21
1.8639582606462262 3.075491691600104e-24 1.5216689337871863e-16 1.521625772257359e-16 4.316152982682831e-21
1.9207263702978936 3.0999064010685965e-24 1.5804600153557566e-16 1.5803970729626637e-16 6.2942393093228086e-21
1.979223391128241 3.1222613361320615e-24 1.6403385787841522e-16 1.640247927058223e-16 9.065172592911333e-21
2.039501978296691 3.1434169536032534e-24 1.7017491999978816e-16 1.7016202114237651e-16 1.2898857411645142e-20
2.1016163906111602 3.1656692603609866e-24 1.7659907278748046e-16 1.7658093229275412e-16 1.814049472631851e-20
2.1656225393682647 3.19037571334381e-24 1.833977598028245e-16 1.8337253542644043e-16 2.5224376384102487e-20
2.231578038680979 3.217675014111912e-24 1.9060034832671634e-16 1.9056565854011468e-16 3.468978660178058e-20
2.299542257339062 3.248391967930093e-24 1.9828015776102538e-16 1.9823295939470454e-16 4.7198366320804164e-20
2.369576372248914 3.2842654344225187e-24 2.0657530056686399e-16 2.0651174720772007e-16 6.355335914381634e-20
2.4417434235010123 3.327334968921387e-24 2.156582039680539e-16 2.1557348732560628e-16 8.471664244756597e-20
2.5161083711144245 3.381061956401013e-24 2.258145412718527e-16 2.257027109185846e-16 1.1183035326806064e-19
2.5927381535095444 3.451066248242841e-24 2.375097201466969e-16 2.3736348564718586e-16 1.4623449951098176e-19
2.6717017477616296 3.543963207047185e-24 2.513313199372181e-16 2.511418445931292e-16 1.894753440888531e-19
2.753070231689431 3.6696612302188966e-24 2.681715469208098e-16 2.679282276142849e-16 2.4331930652491323e-19
2.836916847834745 3.850640870581683e-24 2.899673206632668e-16 2.8965754751846704e-16 3.0977314479955525e-19
2.9233170693905177 4.136323148941222e-24 3.20966580966202e-16 3.205755581877003e-16 3.9102277850179714e-19
2.967498994190263 4.3671540585957945e-24 3.440000661818799e-16 3.435628503301379e-16 4.372158517419859e-19
3.0123486681368425 4.634054379451257e-24 3.705405973238797e-16 3.7005238245096473e-16 4.882148729148068e-19
3.0578761833420214 5.208532967954416e-24 4.2277056938970665e-16 4.222259808864939e-16 5.445885032127495e-19
3.1040917844459814 5.9427829569486936e-24 4.896591299994227e-16 4.890528075108364e-16 6.063224885860257e-19
3.127460860933648 6.708939938530447e-24 5.569487329890099e-16 5.563092026758572e-16 6.395303131528822e-19
3.1510058709225794 7.725879963640461e-24 6.461994762188045e-16 6.455252181851398e-16 6.74258033664511e-19
3.162844764501044 8.669052464797414e-24 7.278115463955555e-16 7.271192729621012e-16 6.922734334547032e-19
3.1747281389236908 9.764045212232282e-24 8.228217368587875e-16 8.221110510118396e-16 7.106858469478167e-19
3.1986289994194426 1.2812141584523936e-23 1.08781497406857e-15 1.0870661541086083e-15 7.48819959961604e-19
3.2227097969389145 1.9984342495665163e-23 1.7095448400304606e-15 1.7087554922025342e-15 7.893478279269725e-19
3.2348180950136065 2.678023468648383e-23 2.2995013848637315e-15 2.298690377867952e-15 8.110069957786844e-19
3.240889293275058 3.186031400366472e-23 2.7408399814191333e-15 2.740017548871534e-15 8.2243254759950425e-19
3.2469718861334385 3.7737768844674076e-23 3.2525514965360862e-15 3.2517172410055452e-15 8.342555305399232e-19
3.2714166318528037 6.906309396739054e-23 5.9972385066661625e-15 5.9963552941752226e-15 8.83212490940341e-19
3.2744851364798273 7.102222997848077e-23 6.173149017056383e-15 6.1722600078504825e-15 8.890092058997073e-19
3.2775565192852394 7.303744098005874e-23 6.354262778495376e-15 6.35336794100442e-15 8.948374909568907e-19
3.283707930232385 7.110389673403804e-23 6.197654428986598e-15 6.19674911390175e-15 9.053150848498692e-19
3.2898708863219004 6.496465583378546e-23 5.673165185556036e-15 5.672250284677636e-15 9.149008784014627e-19
3.29141343181113 6.351670392215319e-23 5.549320693434467e-15 5.548403384139522e-15 9.173092949465594e-19
3.292184975758714 6.280520684222833e-23 5.4884449426282885e-15 5.487526427326193e-15 9.185153020937653e-19
3.295272960557952 5.831619513965252e-23 5.100937570977245e-15 5.100014355013976e-15 9.232159632663637e-19
3.3076538914384823 4.275852913083566e-23 3.7541554320965496e-15 3.753213309368728e-15 9.421227278231059e-19
3.310756385682612 3.9590419260227097e-23 3.4792590002436766e-15 3.4783121063555663e-15 9.468938881100629e-19
3.313861789986515 3.666666897936203e-23 3.225338364206838e-15 3.2243866813042085e-15 9.516829026305827e-19
3.3200813396944477 3.256784291030388e-23 2.8701668980925387e-15 2.869204937539759e-15 9.619605527790601e-19
3.345076488085796 2.5268058251551525e-23 2.2436099389019425e-15 2.2426022330626406e-15 1.00770583930111e-18
3.3482140837626964 2.5544296727576023e-23 2.2702652536019635e-15 2.2692513527660616e-15 1.0139008359012247e-18
3.3513546224236106 2.5823558728318765e-23 2.2972375680716456e-15 2.2962174413823952e-15 1.0201266892509263e-18
3.3576445397418455 2.785472147709412e-23 2.48257838914483e-15 2.481545254327536e-15 1.0331348172942441e-18
3.3702598118196083 3.53362863082807e-23 3.1612127133972996e-15 3.160152286613094e-15 1.0604267842058851e-18
3.382922481734668 3.704844036822483e-23 3.326836130684563e-15 3.3257490761414374e-15 1.087054543125533e-18
3.389271646505754 3.7935220301780547e-23 3.4128595968644137e-15 3.4117590254416842e-15 1.1005714227298269e-18
3.395632727569191 3.88917794237975e-23 3.5054837459542547e-15 3.50436924351278e-15 1.1145024414754185e-18
3.421196662673239 4.348652147060398e-23 3.949136472703724e-15 3.9479641868726655e-15 1.1722858310571944e-18
3.4276182099114902 4.2570949186800087e-23 3.873247132811358e-15 3.872061841971386e-15 1.185290839971786e-18
3.4340518103208963 3.8541754280228045e-23 3.513239480060877e-15 3.5120418355231373e-15 1.1976445377400678e-18
3.4469541582030403 3.280206259217028e-23 3.0012770942360453e-15 3.000055629397687e-15 1.221464838359011e-18
3.472904465399547 3.1202911242981844e-23 2.876453683629944e-15 2.8751774960695396e-15 1.2761875604037362e-18
3.4990501388274233 2.875294191760982e-23 2.6705572079937984e-15 2.669224764788497e-15 1.3324432053015619e-18
3.5253949054701885 2.000841903832214e-23 1.8723626961696967e-15 1.870975195910339e-15 1.3875002593581052e-18
3.5519380250092896 1.1782298443384438e-23 1.1108740753698798e-15 1.1094309055171443e-15 1.4431698527355544e-18
3.578680990867387 8.528155331403254e-24 8.101165815729932e-16 8.086123330327914e-16 1.5042485402018648e-18
3.605625307711299 7.220419268349019e-24 6.910547284347314e-16 6.894859405303669e-16 1.5687879043644259e-18
3.660119384959845 6.284343126605259e-24 6.105546933047949e-16 6.088493796388301e-16 1.7053136659647329e-18
3.715437065384467 5.628457295525396e-24 5.550967923065944e-16 5.532461769188365e-16 1.8506153877580876e-18
3.8285932144167436 5.338197690980878e-24 5.425044581388187e-16 5.403366755663845e-16 2.167782572434071e-18
3.94519561050918 5.329805472017547e-24 5.581479483255121e-16 5.556268002893945e-16 2.5211480361175733e-18
4.06534921144712 5.438425242291782e-24 5.868680321236897e-16 5.839557035056646e-16 2.9123286180250548e-18
4.189162171576248 5.615786605550076e-24 6.244637070863758e-16 6.211195444488738e-16 3.3441626375017827e-18
4.316745939156006 5.843847673598467e-24 6.696144380378445e-16 6.657968703858786e-16 3.817567651966058e-18
4.448215356677963 6.1165347698173055e-24 7.222053262118763e-16 7.178763290987685e-16 4.328997113108043e-18
4.58368876423945 6.434604627170032e-24 7.829002306944812e-16 7.780185917008928e-16 4.8816389935884364e-18
4.723288106065518 6.803891509286927e-24 8.530436413643217e-16 8.47562103908182e-16 5.481537456139117e-18
4.867139040275056 7.23587056302126e-24 9.348328724609418e-16 9.287147918035993e-16 6.1180806573425416e-18
4.940699165968905 7.490031586647233e-24 9.822940042488503e-16 9.75841285019194e-16 6.4527192296569326e-18
5.015371051989984 7.752240118504657e-24 1.032047575921153e-15 1.0252496964257644e-15 6.797879495388561e-18
5.091171501069577 8.065035240166039e-24 1.089917007010954e-15 1.0827566680712645e-15 7.160338939689399e-18
5.129500256944802 8.225131529717122e-24 1.1199208767512717e-15 1.1125753092774755e-15 7.345567473796642e-18
5.168117569889187 8.39134203528215e-24 1.1511535084338827e-15 1.1436186293589404e-15 7.534879074942303e-18
5.20702561229733 8.591670067974896e-24 1.1875085305789546e-15 1.1797690854779164e-15 7.739445101038306e-18
5.246226572918644 8.796602879260987e-24 1.2249869502809386e-15 1.217039564577947e-15 7.947385702991616e-18
5.265937586045735 8.900840080665533e-24 1.2441597252278271e-15 1.2361071039904886e-15 8.052621237338584e-18
5.285722656980489 9.006282062788421e-24 1.263628315889916e-15 1.2554696158758688e-15 8.158700014047558e-18
5.305582063971359 9.112947517832992e-24 1.2833979420515463e-15 1.2751323202781905e-15 8.265621773355735e-18
5.3255160863122235 9.22693580820806e-24 1.3043334533516022e-15 1.2959594142302782e-15 8.37403912132383e-18
5.365609099470188 9.506878617520434e-24 1.3540241545468981e-15 1.3454256481819804e-15 8.59850636491782e-18
5.406003951863644 9.796587180739094e-24 1.4057904851669577e-15 1.396963790129641e-15 8.826695037317072e-18
5.446702915881641 1.0096523577621813e-23 1.4597382383480786e-15 1.4506796285539998e-15 9.058609794078427e-18
5.487708281020852 1.0419094491395008e-23 1.5177156994819122e-15 1.5084206663843056e-15 9.295033097606784e-18
5.529022354014368 1.0861421925523801e-23 1.5940592640601738e-15 1.5845171882433e-15 9.5420758168742e-18
5.570647458961463 1.1328161241390471e-23 1.6750760525263988e-15 1.6652827842455806e-15 9.793268280818668e-18
5.612585937458331 1.1821049826635148e-23 1.761118116917855e-15 1.7510694941186163e-15 1.0048622799238403e-17
5.654840148729818 1.2360642934341536e-23 1.8553712677629015e-15 1.845062123646725e-15 1.030914411617641e-17
5.67608639626678 1.2725630784666146e-23 1.917333891106883e-15 1.9068885786445583e-15 1.044531246232535e-17
5.686739436050992 1.2913499854384177e-23 1.949291210589489e-15 1.93877737409289e-15 1.0513836496599295e-17
5.6974124697621304 1.3105065785511993e-23 1.9819208212191245e-15 1.9713381669695464e-15 1.0582654249577968e-17
5.718818669136295 1.349964160685986e-23 2.0492644124798695e-15 2.0385432401455e-15 1.0721172334369294e-17
5.740305295436557 1.3933653070212416e-23 2.1230949473842282e-15 2.112233221463726e-15 1.0861725920501717e-17
5.7835210386641895 1.5055289258265575e-23 2.311270929282142e-15 2.300117803008872e-15 1.1153126273268852e-17
5.827062130521658 1.6342633748226034e-23 2.5277908048388762e-15 2.5163390163232423e-15 1.1451788515633226e-17
5.8489554468988025 1.7243833608941382e-23 2.6772046450323434e-15 2.665592443552672e-15 1.1612201479670687e-17
5.870931020387893 1.820897584752255e-23 2.837670273208909e-15 2.825896080459202e-15 1.1774192749705855e-17
5.892989160043636 1.9243173404228956e-23 3.010105856200729e-15 2.9981680861457312e-15 1.1937770054998711e-17
5.915130176081913 2.041775919317871e-23 3.2058398067773483e-15 3.193732657745886e-15 1.2107149031462924e-17
5.95966208400165 2.3697771180938068e-23 3.748854375020056e-15 3.7363668535878555e-15 1.2487521432199966e-17
6.004529249263818 2.841559028338769e-23 4.529028774558974e-15 4.516115940804921e-15 1.291283375405321e-17
6.027089341400364 3.1692371574101304e-23 5.070278342158128e-15 5.057122588534946e-15 1.3155753623182765e-17
6.049734195844842 3.555952647678509e-23 5.710336429735882e-15 5.696923824387495e-15 1.3412605348390601e-17
6.095279466722835 4.6723854784734096e-23 7.559650564313542e-15 7.545616606767588e-15 1.4033957545952176e-17
6.141167624020661 6.388609699555644e-23 1.0414219840420875e-14 1.0399391750779544e-14 1.4828089641331642e-17
6.164241091010745 7.484817597038187e-23 1.2247015581629066e-14 1.2231695116637691e-14 1.5320464991380654e-17
6.187401249150058 8.731985031396119e-23 1.4341371840867953e-14 1.4325544002939486e-14 1.5827837928462674e-17
6.1990139391386085 9.341023748432881e-23 1.537044786501796e-14 1.535436147183747e-14 1.6086393180485495e-17
6.204828454712694 9.661701286631576e-23 1.5913027681089246e-14 1.589681050699618e-14 1.6217174093065616e-17
6.210648424152782 9.895926830178846e-23 1.631408999414597e-14 1.6297759920726017e-14 1.633007341994821e-17
6.233982942956859 1.0691551847542888e-22 1.7691953492902234e-14 1.7675223466211196e-14 1.6730026691035924e-17
6.239830258556775 1.0793228029446894e-22 1.7876955593720782e-14 1.7860165349130577e-14 1.6790244590204894e-17
6.245683058788269 1.0802081537481978e-22 1.7908401646353577e-14 1.7891551015832374e-14 1.6850630521203346e-17
6.257405133728602 1.0780312037567504e-22 1.790585399598231e-14 1.7888894877996817e-14 1.6959117985495355e-17
6.269149208991335 1.0624013417265697e-22 1.7679364503255794e-14 1.7662352121711607e-14 1.7012381544186407e-17
6.280915325867298 1.0231921170035658e-22 1.7058842411539706e-14 1.7041845277779295e-14 1.6997133760409408e-17
6.304513850009849 9.26490680616334e-23 1.5504654441468147e-14 1.5487750013326142e-14 1.6904428142009177e-17
6.32820103803542 8.066701733402545e-23 1.3550199826969924e-14 1.3533454290661346e-14 1.6745536308584152e-17
6.3519772230701035 6.968018211415724e-23 1.1748641239442438e-14 1.1732033608151551e-14 1.660763129088586e-17
6.375842739491607 6.043209606088096e-23 1.0227622443266083e-14 1.0211131401102873e-14 1.6491042163211026e-17
6.399797922933955 5.302943451527957e-23 9.008504299712726e-15 8.992050243146857e-15 1.64540565658691e-17
6.42384311029221 4.6871050249172744e-23 7.992249693117996e-15 7.975816764690397e-15 1.6432928427598827e-17
6.447978639727206 4.23889449609111e-23 7.255137213593588e-15 7.238662743254392e-15 1.647447033919514e-17
6.472204850670314 3.865389343421072e-23 6.640716386301073e-15 6.624187595402972e-15 1.652879089809865e-17
6.496522083828205 3.623158894420065e-23 6.247952694469619e-15 6.2313182520936676e-15 1.6634442375949872e-17
6.520930681187647 3.4191369496685046e-23 5.918280064430814e-15 5.90153153544681e-15 1.6748528984004686e-17
