Dust emission spectrum from A.P. Jones, M. Kohler, N. Ysard, M. Bocchio, and L. Verstraete (2017), A&A, 602A, 46J 
inside the DustPedia framework.

lambda    nu*dP/dnu     j_nu    j_nu(carb.) j_nu(sil)
 (um)   (erg s-1 H-1) (Jy cm2 sr-1 H-1)
0.9927057738263894 2.776108230286601e-21 7.315202866604798e-14 7.315202512378913e-14 3.542258859045436e-21
1.0001793341362166 2.822783771591122e-21 7.494193836268035e-14 7.494193409990292e-14 4.262777415907863e-21
1.0077091589558085 2.869644797877461e-21 7.675961403791982e-14 7.675960891490008e-14 5.1230197622260856e-21
1.0114953028030835 2.8931427244807843e-21 7.767891702848567e-14 7.767891141509462e-14 5.6133910422633585e-21
1.0152956718711033 2.9166844870339264e-21 7.860522580961984e-14 7.860521966097362e-14 6.148646223468333e-21
1.0229392996569957 2.9638733654973865e-21 8.04783272392967e-14 8.047831986945222e-14 7.369844449707424e-21
1.0267826658714554 2.9874668843242437e-21 8.14237427166958e-14 8.142373465185397e-14 8.064841830264322e-21
1.0306404723013447 3.0110999404533057e-21 8.23762079631605e-14 8.237619914072689e-14 8.822433590120414e-21
1.03451277320114 3.0347718097912213e-21 8.333574678742559e-14 8.333573713945472e-14 9.647970877872414e-21
1.0383996230291617 3.058481790644574e-21 8.430238356089078e-14 8.430237301365479e-14 1.0547235976576159e-20
1.0403485208654093 3.0703508598755693e-21 8.478837145483717e-14 8.478836042838793e-14 1.1026449246455768e-20
1.0423010764483396 3.0822292042894743e-21 8.527614324344604e-14 8.527613171697128e-14 1.1526474751798e-20
1.0462171883269815 3.106013395537635e-21 8.625705140967055e-14 8.62570388172392e-14 1.2592431354415317e-20
1.0471985131304309 3.1119651153567926e-21 8.650339845949509e-14 8.650338558618417e-14 1.2873310917149434e-20
1.048180758391296 3.117919084590574e-21 8.675019434082477e-14 8.675018118064303e-14 1.3160181716518159e-20
1.0501480137395462 3.129833733298646e-21 8.72451342754008e-14 8.724512052301548e-14 1.3752385320442176e-20
1.0521189612883777 3.141757266632425e-21 8.774187459499327e-14 8.774186022495103e-14 1.4370042266239665e-20
1.0531058218030118 3.1477144444744684e-21 8.799070020113681e-14 8.799068551237663e-14 1.4688760171791804e-20
1.0540936079674168 3.153647942752858e-21 8.823925284081803e-14 8.823923782651152e-14 1.5014306505969135e-20
1.058054026499678 3.177402650392693e-21 8.923793886312491e-14 8.92379224762684e-14 1.6386856517338406e-20
1.0590464539527713 3.1833464631236854e-21 8.948873140829282e-14 8.948871465999354e-14 1.6748299252542286e-20
1.06003981227728 3.1892923134200024e-21 8.973997324901175e-14 8.973995613165253e-14 1.7117359231902744e-20
1.0620293250338977 3.201190094015581e-21 9.024380660032982e-14 9.024378872138614e-14 1.7878943697187673e-20
1.0660195594769086 3.2250097522686002e-21 9.125688463535271e-14 9.125686513492856e-14 1.9500424127765025e-20
1.070024785945596 3.2488611309112037e-21 9.227720233675851e-14 9.227718107484101e-14 2.1261917501150273e-20
1.0740450607676866 3.2727437633457754e-21 9.330478988748746e-14 9.330476671262528e-14 2.3174862183206536e-20
1.07808044048254 3.296657211142462e-21 9.433967831391571e-14 9.43396530623418e-14 2.525157392587238e-20
1.0861967418109137 3.3445383359580373e-21 9.643043082987699e-14 9.643040087954553e-14 2.9950331463593604e-20
1.0902777775684922 3.3684220508726872e-21 9.74839447824485e-14 9.748391218046022e-14 3.260198825143288e-20
1.0943741465085532 3.392333683163735e-21 9.854482494574357e-14 9.854478946897838e-14 3.5476765192859216e-20
1.1026131145906286 3.440239599316129e-21 1.0068882603801669e-13 1.0068878407010931e-13 4.1967907424872215e-20
1.1109141095355224 3.488254200330535e-21 1.0286272886259203e-13 1.0286267928063296e-13 4.9581959032116603e-20
1.1192775983109025 3.536338514651529e-21 1.0506572840189476e-13 1.0506566990061144e-13 5.850128333231567e-20
1.1277040513999907 3.5843188569622386e-21 1.072929560502668e-13 1.0729288711446422e-13 6.89358026018922e-20
1.1361939428280308 3.63239980647149e-21 1.0955079829171814e-13 1.095507171648884e-13 8.112682974086e-20
1.1447477501889525 3.6805816881125476e-21 1.1183962257077702e-13 1.1183952721939139e-13 9.535138564323927e-20
1.1533659546722406 3.7288825490239e-21 1.141603430182168e-13 1.1416023109100525e-13 1.1192721152867195e-19
1.1707974979042381 3.825988048716156e-21 1.1890355180836685e-13 1.189033981671365e-13 1.5364123040679154e-19
1.1884924949847024 3.923586335830687e-21 1.237796043198552e-13 1.237793944757577e-13 2.098440975212204e-19
1.2064549276569216 4.022338147967721e-21 1.288128272643108e-13 1.2881254207444158e-13 2.8518986919577843e-19
1.2246888378427687 4.121605871991549e-21 1.3398668822352368e-13 1.339863025355999e-13 3.856879237918584e-19
1.2431983285522175 4.221310910545591e-21 1.3930194839025237e-13 1.393014293200623e-13 5.190701900988775e-19
1.2619875648066055 4.321601086001715e-21 1.4476686997852427e-13 1.4476617474423194e-13 6.952342923500486e-19
1.3004222497298317 4.523332474676982e-21 1.5613933848177996e-13 1.5613810884318572e-13 1.2296385942392806e-18
1.3400274889804893 4.727432102136858e-21 1.6815447928628267e-13 1.6815234436671435e-13 2.1349195682955865e-18
1.3808389325824078 4.934681003618341e-21 1.808720829247126e-13 1.8086844253767495e-13 3.64038703759781e-18
1.4228933163050095 5.1468579698610106e-21 1.943944923887724e-13 1.9438839293444275e-13 6.099454329611969e-18
1.466228494730424 5.367697797401165e-21 2.089099597356922e-13 2.0889991290218189e-13 1.0046833510291813e-17
1.5108834753276823 5.5968221734658466e-21 2.244615268289317e-13 2.2444525060296385e-13 1.6276225967888103e-17
1.5568984535646726 5.834114846016504e-21 2.411041548055176e-13 2.410781936982154e-13 2.5961107302245604e-17
1.6043148490894465 6.081054477598533e-21 2.58963126882095e-13 2.589222808071759e-13 4.084607491904457e-17
1.6531753430134553 6.339217214152774e-21 2.7817877186852047e-13 2.7811545505750296e-13 6.331681101750251e-17
1.7035239163302658 6.610450958874467e-21 2.989157204445065e-13 2.9881899727508184e-13 9.67231694246794e-17
1.755405889504358 6.899868303000665e-21 3.2150504015974006e-13 3.2135935974548047e-13 1.456804142596215e-16
1.8088679632656115 7.207622574090691e-21 3.4607349341708046e-13 3.4585708027520464e-13 2.1641314187579303e-16
1.8639582606462262 7.533761367685775e-21 3.7274984871798235e-13 3.7243263694457146e-13 3.1721177341088833e-16
1.9207263702978936 7.879414518767877e-21 4.017250194081161e-13 4.0126607491890376e-13 4.589444892123558e-16
1.979223391128241 8.246208732447324e-21 4.3323004887531875e-13 4.3257438357057094e-13 6.556653047478877e-16
2.039501978296691 8.635604492878658e-21 4.675050511644336e-13 4.665797816192115e-13 9.252695452219776e-16
2.1016163906111602 9.051687566875259e-21 5.049547188924765e-13 5.036644044360837e-13 1.290314456392711e-15
2.1656225393682647 9.496572792830363e-21 5.459075458495546e-13 5.44128810959799e-13 1.7787348897555035e-15
2.231578038680979 9.969511375621631e-21 5.905482475722e-13 5.881236030580417e-13 2.4246445141584644e-15
2.299542257339062 1.047116967654059e-20 6.391547559237206e-13 6.358855937676418e-13 3.2691621560790395e-15
2.369576372248914 1.100321155538256e-20 6.920852713153526e-13 6.877239902972217e-13 4.361281018130881e-15
2.4417434235010123 1.1567611730715195e-20 7.497442828410253e-13 7.439857913371816e-13 5.75849150384361e-15
2.5161083711144245 1.2168358821719907e-20 8.127009799852595e-13 8.051733625263991e-13 7.527617458860435e-15
2.5927381535095444 1.2812023159616855e-20 8.817506869660859e-13 8.720054277007681e-13 9.745259265317952e-15
2.6717017477616296 1.3504288228349537e-20 9.576991596568053e-13 9.452016162837206e-13 1.2497543373084791e-14
2.753070231689431 1.4253434444063385e-20 1.0416126514138267e-12 1.025732536512085e-12 1.588011490174171e-14
2.836916847834745 1.5081771998790827e-20 1.135712512364996e-12 1.1157140392087278e-12 1.9998473156268098e-14
2.9233170693905177 1.603798923475933e-20 1.2445010665018055e-12 1.2195388966569813e-12 2.4962169844824584e-14
2.967498994190263 1.6609171896008785e-20 1.3083019638859196e-12 1.2805594195567533e-12 2.774254432916589e-14
3.0123486681368425 1.7219529579844925e-20 1.3768795645655557e-12 1.3460870800529779e-12 3.079248451257801e-14
3.0578761833420214 1.8159714633090562e-20 1.474002937606725e-12 1.4398593342462203e-12 3.4143603360504134e-14
3.1040917844459814 1.9247214326986825e-20 1.5858856516449007e-12 1.5481014680784417e-12 3.778418356645917e-14
3.127460860933648 2.0204531489396832e-20 1.6772975040407045e-12 1.6375665045607044e-12 3.973099947999991e-14
3.1510058709225794 2.1404666360212624e-20 1.7903053445953517e-12 1.7485468425617424e-12 4.175850203360892e-14
3.162844764501044 2.2462764847967018e-20 1.8858646532254725e-12 1.843057596339552e-12 4.2807056885919955e-14
3.1747281389236908 2.36559325153979e-20 1.9934991139685556e-12 1.949622661322591e-12 4.387645264596495e-14
3.1986289994194426 2.6862869432851507e-20 2.280792123839969e-12 2.2347077768927643e-12 4.608434694720471e-14
3.2227097969389145 3.419293858658309e-20 2.925008002582571e-12 2.876585900153921e-12 4.842210242864893e-14
3.2348180950136065 4.103745173042423e-20 3.523706128423738e-12 3.474036920369293e-12 4.966920805444488e-14
3.240889293275058 4.61410310594843e-20 3.969363977303865e-12 3.919036951505119e-12 5.032702579874586e-14
3.2469718861334385 5.2052524156835065e-20 4.486314918129783e-12 4.43530724657744e-12 5.100767155234206e-14
3.2714166318528037 8.304393820734671e-20 7.211294417210174e-12 7.157475447335107e-12 5.381896987506797e-14
3.2744851364798273 8.498576051995524e-20 7.386838799295797e-12 7.332688934428052e-12 5.414986486774525e-14
3.2775565192852394 8.697924297683644e-20 7.567200585523204e-12 7.512718209453578e-12 5.4482376069626946e-14
3.283707930232385 8.509482695192478e-20 7.417150892800219e-12 7.362074706669394e-12 5.5076186130826525e-14
3.2898708863219004 7.906017423665471e-20 6.904083801982156e-12 6.848467976208865e-12 5.5615825773290584e-14
3.29141343181113 7.763423292799417e-20 6.7827394795901895e-12 6.726988166949792e-12 5.5751312640396045e-14
3.292184975758714 7.693315435145529e-20 6.723063311954297e-12 6.66724416925067e-12 5.581914270362747e-14
3.295272960557952 7.255636392142119e-20 6.346530013728881e-12 6.290447168591967e-12 5.6082845136913006e-14
3.3076538914384823 5.728360266277405e-20 5.029442136526336e-12 4.9723005167943425e-12 5.714161973199301e-14
3.310756385682612 5.414442547391625e-20 4.758284533561303e-12 4.700876119543248e-12 5.740841401805515e-14
3.313861789986515 5.123605650943678e-20 4.506916589111752e-12 4.4492405394756914e-12 5.767604963605995e-14
3.3200813396944477 4.718116053357704e-20 4.1580219343977245e-12 4.0997698735808e-12 5.825206081692433e-14
3.345076488085796 4.015299554960611e-20 3.5652783049227822e-12 3.504458368719269e-12 6.081993620351369e-14
3.3482140837626964 4.0454159252952376e-20 3.595388555618821e-12 3.5342207213488553e-12 6.116783426996569e-14
3.3513546224236106 4.0757983887569436e-20 3.6257888686234967e-12 3.5642716102862557e-12 6.151725833724157e-14
3.3576445397418455 4.283078181859597e-20 3.817333927408432e-12 3.7550859709025685e-12 6.2247956505864e-14
3.3702598118196083 5.030053001081646e-20 4.4999260412816164e-12 4.436145486972557e-12 6.378055430906069e-14
3.382922481734668 5.212148870871326e-20 4.6803495666158654e-12 4.6150805320715126e-12 6.526903454435195e-14
3.389271646505754 5.305961386679089e-20 4.773532641978564e-12 4.707509381187019e-12 6.602326079154763e-14
3.395632727569191 5.4089969858864945e-20 4.875362170839251e-12 4.808561634401898e-12 6.680053643735213e-14
3.421196662673239 5.90700619981073e-20 5.364322746285547e-12 5.294305932959721e-12 7.001681332582521e-14
3.4276182099114902 5.821268209467524e-20 5.2963842320521175e-12 5.2256509418569224e-12 7.073329019519604e-14
3.4340518103208963 5.423718182216834e-20 4.94394227827438e-12 4.8725319526818605e-12 7.141032559251938e-14
3.4469541582030403 4.854479024232306e-20 4.4416830981096535e-12 4.3689745614217555e-12 7.270853668789932e-14
3.472904465399547 4.7050643873663605e-20 4.3373836765952654e-12 4.261682720425037e-12 7.570095617022718e-14
3.4990501388274233 4.4742599573699944e-20 4.155667692659446e-12 4.07690743037135e-12 7.87602622880955e-14
3.5253949054701885 3.630550431140758e-20 3.3974234450063796e-12 3.3156956934561346e-12 8.17277515502455e-14
3.5519380250092896 2.827918773265519e-20 2.6662553724705016e-12 2.581548755565878e-12 8.470661690462338e-14
3.578680990867387 2.5220371191803172e-20 2.3957632221672628e-12 2.3077921977785086e-12 8.797102438875505e-14
3.605625307711299 2.4117136206286333e-20 2.308212361672101e-12 2.216805603786045e-12 9.140675788605611e-14
3.660119384959845 2.3587264925715984e-20 2.291618234792173e-12 2.1930038494510443e-12 9.861438534112906e-14
3.715437065384467 2.3314314771363036e-20 2.299333665496313e-12 2.1931365456169833e-12 1.0619711987932966e-13
3.8285932144167436 2.3794849911329053e-20 2.418196721985418e-12 2.295757166858552e-12 1.2243955512686508e-13
3.94519561050918 2.454178921507666e-20 2.5700655250081745e-12 2.4299969171060985e-12 1.4006860790207626e-13
4.06534921144712 2.5386525010421504e-20 2.7394952236295825e-12 2.5804520940454806e-12 1.5904312958410254e-13
4.189162171576248 2.627687477663746e-20 2.9219334326996243e-12 2.742556334219957e-12 1.7937709847966786e-13
4.316745939156006 2.718811103011565e-20 3.115336453924197e-12 2.914366814308839e-12 2.009696396153581e-13
4.448215356677963 2.810566671763335e-20 3.3185558431505406e-12 3.095063815172383e-12 2.234920279781573e-13
4.58368876423945 2.90241361851287e-20 3.531375155374383e-12 3.2844276075106956e-12 2.469475478636875e-13
4.723288106065518 2.994353199917425e-20 3.754195600711701e-12 3.4827358732342358e-12 2.7145972747746534e-13
4.867139040275056 3.086213139633495e-20 3.987209927571788e-12 3.6908789845616456e-12 2.9633094301014283e-13
4.940699165968905 3.133403867036073e-20 4.10936028222742e-12 3.800388455417702e-12 3.0897182680971764e-13
5.015371051989984 3.1794061980024554e-20 4.2327100416880006e-12 3.911004334266692e-12 3.2170570742130975e-13
5.091171501069577 3.2286453154262875e-20 4.3632238844587e-12 4.028408646902413e-12 3.348152375562874e-13
5.129500256944802 3.2527418300476587e-20 4.42888173762468e-12 4.087492970963432e-12 3.413887666612475e-13
5.168117569889187 3.276898356417747e-20 4.495363225466087e-12 4.147320825008997e-12 3.4804240045708986e-13
5.20702561229733 3.3043044558212157e-20 4.567086140264957e-12 4.211754816214014e-12 3.5533132405094335e-13
5.246226572918644 3.331451849477781e-20 4.6392739300770025e-12 4.276623102151154e-12 3.6265082792584915e-13
5.265937586045735 3.3449278716667283e-20 4.675541301724639e-12 4.309220348529371e-12 3.6632095319526905e-13
5.285722656980489 3.3583384998604984e-20 4.71192395838989e-12 4.3419265546434085e-12 3.6999740374648265e-13
5.305582063971359 3.371683573643594e-20 4.748421683758559e-12 4.3747419508387845e-12 3.7367973291977476e-13
5.3255160863122235 3.385595281562417e-20 4.785928153225991e-12 4.4085292509808875e-12 3.7739890224510456e-13
5.365609099470188 3.41811654896817e-20 4.868277545723528e-12 4.48318213185404e-12 3.8509541386948825e-13
5.406003951863644 3.4506337048096346e-20 4.951589712338806e-12 4.5587681610789305e-12 3.928215512598767e-13
5.446702915881641 3.483163067244244e-20 5.035898030216688e-12 4.635324296701616e-12 4.0057373351507206e-13
5.487708281020852 3.5169162896310686e-20 5.122977885405557e-12 4.714594018207282e-12 4.08383867198274e-13
5.529022354014368 3.561331524248718e-20 5.226731405468747e-12 4.8102067206001186e-12 4.165246848686273e-13
5.570647458961463 3.6065874311762207e-20 5.33299986517887e-12 4.9083049396098486e-12 4.2469492556902205e-13
5.612585937458331 3.652775515763955e-20 5.441960935949292e-12 5.009069994595489e-12 4.328909413538024e-13
5.654840148729818 3.701784956345323e-20 5.5564953084747725e-12 5.115342732977039e-12 4.411525754977333e-13
5.67608639626678 3.734641403904921e-20 5.626875913660849e-12 5.181396013899162e-12 4.4547989976168765e-13
5.686739436050992 3.7513401602278736e-20 5.6626433458943e-12 5.214996676938064e-12 4.4764666895623557e-13
5.6974124697621304 3.76822588348931e-20 5.698807972258125e-12 5.248992539821627e-12 4.498154324364984e-13
5.718818669136295 3.802578846736666e-20 5.7723676918255595e-12 5.31820898201639e-12 4.541587098091702e-13
5.740305295436557 3.8399705483308884e-20 5.851029897316989e-12 5.392485997271364e-12 4.585439000456277e-13
5.7835210386641895 3.935886515398569e-20 6.042328332549289e-12 5.574724060328329e-12 4.676042722209579e-13
5.827062130521658 4.0429584039919275e-20 6.2534308945559e-12 5.776645566073932e-12 4.767853284819661e-13
5.8489554468988025 4.118414836777255e-20 6.394076619640426e-12 5.912317308938154e-12 4.817593107022723e-13
5.870931020387893 4.1978756049058416e-20 6.541931251059845e-12 6.055182495542234e-12 4.867487555176119e-13
5.892989160043636 4.2816613712695583e-20 6.697572015380045e-12 6.20581881273152e-12 4.917532026485245e-13
5.915130176081913 4.376169075794001e-20 6.8711247358894525e-12 6.374178815871708e-12 4.969459200177454e-13
5.95966208400165 4.64094355850344e-20 7.341712193386139e-12 6.832838243276458e-12 5.088739501096823e-13
6.004529249263818 5.017971106999204e-20 7.997910761963414e-12 7.4755605380199e-12 5.223502239435137e-13
6.027089341400364 5.2793050188380374e-20 8.446053283224593e-12 7.915868642214002e-12 5.301846410105886e-13
6.049734195844842 5.584484184259182e-20 8.967859428465079e-12 8.429365794920485e-12 5.384936335445943e-13
6.095279466722835 6.462912731672621e-20 1.0456620521614386e-11 9.897540278650935e-12 5.59080242963451e-13
6.141167624020661 7.798480117170484e-20 1.2712482086206242e-11 1.212648133664136e-11 5.860007495648881e-13
6.164241091010745 8.648813357385138e-20 1.4151600967859498e-11 1.3548607015860902e-11 6.029939519985966e-13
6.187401249150058 9.60263654061883e-20 1.5771325853922347e-11 1.5150901148268174e-11 6.204247056541707e-13
6.1990139391386085 1.0065592532521078e-19 1.6562709764824767e-11 1.593341928247207e-11 6.292904823526956e-13
6.204828454712694 1.0308212844856891e-19 1.6977845979334353e-11 1.634407947366612e-11 6.337665056682344e-13
6.210648424152782 1.0483512659245877e-19 1.728276410210834e-11 1.6645205707586852e-11 6.375583945214898e-13
6.233982942956859 1.1069587703174774e-19 1.8317512146300704e-11 1.7666825290839487e-11 6.506868554612231e-13
6.239830258556775 1.1139089674725149e-19 1.8449810466919214e-11 1.779737109072497e-11 6.524393761942443e-13
6.245683058788269 1.1136929717452956e-19 1.8463534995112634e-11 1.780934100619113e-11 6.541939889215077e-13
6.257405133728602 1.1101913700239287e-19 1.844002706969284e-11 1.778280239780347e-11 6.572246718893711e-13
6.269149208991335 1.0962876483690886e-19 1.8243264738762434e-11 1.758512225754296e-11 6.581424812194747e-13
6.280915325867298 1.064253968883662e-19 1.774343296761228e-11 1.7086982795159445e-11 6.564501724528328e-13
6.304513850009849 9.864370647499445e-20 1.650784636822216e-11 1.5857138602590788e-11 6.507077656313751e-13
6.32820103803542 8.918469491919573e-20 1.498097335938957e-11 1.4338516242624598e-11 6.424571167649674e-13
6.3519772230701035 8.056453955334926e-20 1.358383177418334e-11 1.294882340440441e-11 6.350083697789305e-13
6.375842739491607 7.328811206675237e-20 1.2403394696807898e-11 1.1775010532485761e-11 6.28384164322137e-13
6.399797922933955 6.752610125045221e-20 1.1471160856566575e-11 1.0846432926795665e-11 6.247279297709131e-13
6.42384311029221 6.27111572333982e-20 1.0693236539169446e-11 1.0071571612387999e-11 6.216649267814456e-13
6.447978639727206 5.921874816372735e-20 1.0135664946161725e-11 9.514753923942606e-12 6.209110222191201e-13
6.472204850670314 5.62942490214231e-20 9.671319205330421e-12 9.05070556264883e-12 6.206136426815892e-13
6.496522083828205 5.438788434077282e-20 9.378913219532567e-12 8.756730816696599e-12 6.221824028359683e-13
6.520930681187647 5.2771638101753835e-20 9.134390881162202e-12 8.510361845424065e-12 6.240290357381374e-13
