Dust emission spectrum from A.P. Jones, M. Kohler, N. Ysard, M. Bocchio, and L. Verstraete (2017), A&A, 602A, 46J 
inside the DustPedia framework.

lambda    nu*dP/dnu     j_nu    j_nu(carb.) j_nu(sil)
 (um)   (erg s-1 H-1) (Jy cm2 sr-1 H-1)
0.9927057738263894 7.72723128967366e-21 2.036169334626531e-13 2.0361692265772792e-13 1.080492516572495e-20
1.0001793341362166 7.857038688432896e-21 2.0859610822044336e-13 2.0859609521883006e-13 1.3001613347180536e-20
1.0077091589558085 7.987381007263184e-21 2.1365302205514082e-13 2.1365300643113655e-13 1.5624004275440873e-20
1.0114953028030835 8.052747149581804e-21 2.1621079125849196e-13 2.1621077413974472e-13 1.711874723894275e-20
1.0152956718711033 8.118240392593339e-21 2.1878818983451928e-13 2.187881710843051e-13 1.8750214101683995e-20
1.0229392996569957 8.249535933920969e-21 2.2400041114813754e-13 2.2400038867600867e-13 2.2472128896484764e-20
1.0267826658714554 8.315189279057906e-21 2.2663141005888868e-13 2.2663138546875315e-13 2.4590135538419508e-20
1.0306404723013447 8.380958356311375e-21 2.292821833028095e-13 2.292821564040438e-13 2.6898765584106895e-20
1.03451277320114 8.446841301311903e-21 2.3195280303072407e-13 2.319527736164225e-13 2.941430145977446e-20
1.0383996230291617 8.512836313465498e-21 2.346433430743437e-13 2.3464331092000757e-13 3.2154336103496586e-20
1.0403485208654093 8.545875299868627e-21 2.35996106764601e-13 2.359960731501803e-13 3.3614420703972004e-20
1.0423010764483396 8.578941657541455e-21 2.3735387901962255e-13 2.373538438817511e-13 3.513787147509386e-20
1.0462171883269815 8.645155665249903e-21 2.400844882811549e-13 2.4008444989573103e-13 3.838542390085847e-20
1.0471985131304309 8.661725956867524e-21 2.40770286304433e-13 2.407702470633109e-13 3.924112215608316e-20
1.048180758391296 8.678302915315599e-21 2.4145734511613633e-13 2.414573050010769e-13 4.011505950197625e-20
1.0501480137395462 8.711476736808227e-21 2.4283525017759855e-13 2.428352082584619e-13 4.1919136683547984e-20
1.0521189612883777 8.74467694071426e-21 2.442182136904241e-13 2.442181698897267e-13 4.380069731364271e-20
1.0531058218030118 8.761264975414578e-21 2.44910983328773e-13 2.449109385571912e-13 4.477158177001017e-20
1.0540936079674168 8.777787781240825e-21 2.456030125974816e-13 2.4560296683422903e-13 4.576325257801685e-20
1.058054026499678 8.843940939041637e-21 2.483837107424036e-13 2.4838366079828636e-13 4.994411722727212e-20
1.0590464539527713 8.860494605520842e-21 2.4908203712140977e-13 2.4908198607635943e-13 5.1045050322468246e-20
1.06003981227728 8.877054381198269e-21 2.497816268978185e-13 2.4978157472865075e-13 5.216916776063039e-20
1.0620293250338977 8.910192179284425e-21 2.5118460203357146e-13 2.511845475447525e-13 5.448881906980404e-20
1.0660195594769086 8.976540213074797e-21 2.5400577287337926e-13 2.5400571344604975e-13 5.942732958617692e-20
1.070024785945596 9.042983828402877e-21 2.568473119771442e-13 2.568472471852044e-13 6.479193976683648e-20
1.0740450607676866 9.10952189161759e-21 2.597093104545152e-13 2.597092398370881e-13 7.061742714884751e-20
1.07808044048254 9.176153348884235e-21 2.625918618917913e-13 2.6259178495055737e-13 7.694123390155716e-20
1.0861967418109137 9.309591023124174e-21 2.6841608109499117e-13 2.6841598984693257e-13 9.124805861623989e-20
1.0902777775684922 9.376164519672574e-21 2.713512411754071e-13 2.713511418543263e-13 9.932108083528886e-20
1.0943741465085532 9.442824048717188e-21 2.7430716721429885e-13 2.7430705914146985e-13 1.0807282895631823e-19
1.1026131145906286 9.576398835740495e-21 2.802817445140208e-13 2.802816166820256e-13 1.2783199515436388e-19
1.1109141095355224 9.710311543137362e-21 2.8634069826057697e-13 2.8634054725431677e-13 1.5100626031772918e-19
1.1192775983109025 9.844455382518803e-21 2.924818625815897e-13 2.9248168443193546e-13 1.7814965424256375e-19
1.1277040513999907 9.978349576372653e-21 2.9869179201855496e-13 2.9869158211873136e-13 2.0989982357052553e-19
1.1361939428280308 1.0112563607936144e-20 3.049882928777424e-13 3.049880458880965e-13 2.469896458969742e-19
1.1447477501889525 1.0247099865143223e-20 3.1137246187582354e-13 3.113721716155235e-13 2.9026030011242936e-19
1.1533659546722406 1.0382009552697009e-20 3.178469035085443e-13 3.1784656283209675e-13 3.406764474848877e-19
1.1707974979042381 1.0653359613512938e-20 3.3108370455144485e-13 3.310832370272631e-13 4.675241818540283e-19
1.1884924949847024 1.0926269864991614e-20 3.4469723483076713e-13 3.446965964485115e-13 6.383822557609773e-19
1.2064549276569216 1.1202582627869097e-20 3.5875560131287373e-13 3.5875473394390745e-13 8.673689663202296e-19
1.2246888378427687 1.1480545628102188e-20 3.732138238063001e-13 3.732126510988351e-13 1.1727074649949553e-18
1.2431983285522175 1.1759950270168768e-20 3.880747048303188e-13 3.8807312699450676e-13 1.5778358120801391e-18
1.2619875648066055 1.2041224472476961e-20 4.0336216668300914e-13 4.033600539369478e-13 2.112746061296784e-18
1.3004222497298317 1.260775702184683e-20 4.3520277409428286e-13 4.35199039446787e-13 3.734647495916295e-18
1.3400274889804893 1.3182005586673653e-20 4.688831563279439e-13 4.68876675899212e-13 6.480428732060652e-18
1.3808389325824078 1.3766245203496656e-20 5.045775891456894e-13 5.045665454527417e-13 1.1043692947939385e-17
1.4228933163050095 1.4365508071493993e-20 5.425787278020225e-13 5.425602352426154e-13 1.849255940689527e-17
1.466228494730424 1.4990241074743526e-20 5.834178408607871e-13 5.833873991221102e-13 3.044173867669867e-17
1.5108834753276823 1.563948148814173e-20 6.272241255553851e-13 6.271748395915966e-13 4.928596378871213e-17
1.5568984535646726 1.6312969798562233e-20 6.741596453720471e-13 6.740810824143669e-13 7.856295768031668e-17
1.6043148490894465 1.7014847714062586e-20 7.245812685428154e-13 7.244577400130105e-13 1.235285298050347e-16
1.6531753430134553 1.7749510970736227e-20 7.788875181754013e-13 7.786961568636491e-13 1.913613117522848e-16
1.7035239163302658 1.8522068181628003e-20 8.375430646226723e-13 8.372509324171415e-13 2.921322055309998e-16
1.755405889504358 1.9346663361115542e-20 9.014736959787196e-13 9.010339928728866e-13 4.3970310583277695e-16
1.8088679632656115 2.0223659397217746e-20 9.71037590457528e-13 9.703848402337048e-13 6.527502238235561e-16
1.8639582606462262 2.1153073582563097e-20 1.0465960617813943e-12 1.0456399398293052e-12 9.561219520891887e-16
1.9207263702978936 2.2137909039243285e-20 1.1286818223945645e-12 1.1272994654505312e-12 1.382356944033297e-15
1.979223391128241 2.3182526566656032e-20 1.2179375326757077e-12 1.2159640484122292e-12 1.973484263478297e-15
2.039501978296691 2.4290783729739437e-20 1.3150282762209397e-12 1.312245319838804e-12 2.7829563821359746e-15
2.1016163906111602 2.5473825834502808e-20 1.421075182759292e-12 1.4171971143504727e-12 3.878068408819077e-15
2.1656225393682647 2.6737299645730074e-20 1.5369853894306269e-12 1.5316433408118664e-12 5.342048618760397e-15
2.231578038680979 2.807885418173164e-20 1.6632628727827722e-12 1.655986479324169e-12 7.276393458602422e-15
2.299542257339062 2.95000996959713e-20 1.8006707563097402e-12 1.7908674933332108e-12 9.80326297652911e-15
2.369576372248914 3.100536333070861e-20 1.95019019537687e-12 1.9371222068621633e-12 1.3067988514706602e-14
2.4417434235010123 3.2599827730728525e-20 2.1129283236415192e-12 2.0956874980553566e-12 1.7240825586161976e-14
2.5161083711144245 3.429420954743576e-20 2.290443445608513e-12 2.267924115799197e-12 2.2519329809316156e-14
2.5927381535095444 3.6106251935545524e-20 2.484909061691856e-12 2.455779525131193e-12 2.912953656066198e-14
2.6717017477616296 3.8051013567063973e-20 2.6985075481997947e-12 2.661182487531153e-12 3.7325060668642406e-14
2.753070231689431 4.0150446427565707e-20 2.934114800400561e-12 2.8867278939197404e-12 4.738690648082039e-14
2.836916847834745 4.24645455085847e-20 3.197735363580555e-12 3.1381110618471098e-12 5.962430173344505e-14
2.9233170693905177 4.512421967884426e-20 3.501507495320759e-12 3.4271504820560116e-12 7.435701326474879e-14
2.967498994190263 4.6703970444305727e-20 3.6788647041601314e-12 3.5962653538773777e-12 8.259935028275342e-14
3.0123486681368425 4.8389154521210174e-20 3.869213598311278e-12 3.777577093989594e-12 9.163650432168308e-14
3.0578761833420214 5.0965983929976255e-20 4.136849699934792e-12 4.035287926201178e-12 1.0156177373361386e-13
3.1040917844459814 5.3937343655539794e-20 4.44419945338406e-12 4.3318616892187434e-12 1.1233776416531542e-13
3.127460860933648 5.653902927881517e-20 4.693638787912922e-12 4.575541122019625e-12 1.1809766589329577e-13
3.1510058709225794 5.979373777283125e-20 5.0012014439532404e-12 4.877107048343139e-12 1.2409439561010066e-13
3.162844764501044 6.265795559107583e-20 5.260457672612626e-12 5.13326269924642e-12 1.2719497336620788e-13
3.1747281389236908 6.588401186778453e-20 5.552083782688839e-12 5.421727113549541e-12 1.303566691392973e-13
3.1986289994194426 7.454234921432615e-20 6.329018700163349e-12 6.192135885451604e-12 1.3688281471174457e-13
3.2227097969389145 9.430885570317024e-20 8.06757678775289e-12 7.923785903349104e-12 1.4379088440378718e-13
3.2348180950136065 1.1275413336488926e-19 9.681703273217852e-12 9.534227666234988e-12 1.47475606982865e-13
3.240889293275058 1.2650601946471183e-19 1.0882904543853102e-11 1.073348533161348e-11 1.494192122396233e-13
3.2469718861334385 1.4243496374566195e-19 1.2276217398989081e-11 1.2124787135337384e-11 1.5143026365170107e-13
3.2714166318528037 2.258774805221037e-19 1.9614544413772076e-11 1.94548094022644e-11 1.5973501150766858e-13
3.2744851364798273 2.3110406704373333e-19 2.0087229656700677e-11 1.992651761696991e-11 1.6071203973077494e-13
3.2775565192852394 2.364691777007719e-19 2.0572835986075573e-11 2.041114218723973e-11 1.616937988358397e-13
3.283707930232385 2.3139268871674605e-19 2.0168963839276422e-11 2.0005517711474428e-11 1.6344612780200047e-13
3.2898708863219004 2.1514292739483702e-19 1.878777544420155e-11 1.862273769982362e-11 1.6503774437793256e-13
3.29141343181113 2.1130300650369894e-19 1.8461098800294038e-11 1.8295661471535368e-11 1.6543732875867192e-13
3.292184975758714 2.094150359896775e-19 1.830043961283588e-11 1.813480223962099e-11 1.6563737321488867e-13
3.295272960557952 1.9763535064306979e-19 1.728723184073122e-11 1.7120816918228186e-11 1.6641492250303484e-13
3.3076538914384823 1.5652055973058944e-19 1.3742346181960472e-11 1.3572809793236485e-11 1.6953638872398894e-13
3.310756385682612 1.480669040951755e-19 1.3012317584342792e-11 1.2841994722133108e-11 1.703228622096815e-13
3.313861789986515 1.402336880158947e-19 1.2335483601372606e-11 1.2164371820256574e-11 1.7111178111603136e-13
3.3200813396944477 1.2931469564873828e-19 1.1396356826889914e-11 1.1223546713624852e-11 1.7281011326506423e-13
3.345076488085796 1.1040880784386208e-19 9.803456053279972e-12 9.623073612670775e-12 1.8038244060919343e-13
3.3482140837626964 1.112218279764237e-19 9.88490911258414e-12 9.70350071612729e-12 1.8140839645684893e-13
3.3513546224236106 1.120419483696169e-19 9.967137980574715e-12 9.784699173648933e-12 1.8243880692577854e-13
3.3576445397418455 1.1762675544973965e-19 1.0483595799185552e-11 1.029900209256259e-11 1.8459370662296623e-13
3.3702598118196083 1.3773604626501186e-19 1.2321977944920586e-11 1.2132864526321737e-11 1.8911341859884846e-13
3.382922481734668 1.4264589693500365e-19 1.2809163330510666e-11 1.2615661857299676e-11 1.9350147321099097e-13
3.389271646505754 1.4517466685214066e-19 1.3060705883515513e-11 1.286498124278219e-11 1.9572464073332721e-13
3.395632727569191 1.4795407583700956e-19 1.333573870052762e-11 1.3137722949929268e-11 1.9801575059835175e-13
3.421196662673239 1.6139088714269772e-19 1.4656372071702197e-11 1.444887763083312e-11 2.074944408690757e-13
3.4276182099114902 1.5908503115469653e-19 1.44740874367018e-11 1.426448316960532e-11 2.0960426709647711e-13
3.4340518103208963 1.4838500515395365e-19 1.352590373976154e-11 1.3314306620261568e-11 2.1159711949996855e-13
3.4469541582030403 1.330601874512667e-19 1.2174554317433822e-11 1.1959137595934948e-11 2.1541672149887176e-13
3.472904465399547 1.2903852554224385e-19 1.189547152301849e-11 1.1671247885669022e-11 2.2422363734946394e-13
3.4990501388274233 1.2283128430218132e-19 1.1408501175297964e-11 1.1175277476509382e-11 2.332236987885822e-13
3.5253949054701885 1.0015084039371175e-19 9.371989720131132e-12 9.130042073096141e-12 2.419476470349865e-13
3.5519380250092896 7.857090588669481e-20 7.407924934787534e-12 7.157224709594305e-12 2.5070022519322923e-13
3.578680990867387 7.035936469609283e-20 6.683659688908057e-12 6.423368462955759e-12 2.6029122595229864e-13
3.605625307711299 6.741057875137053e-20 6.451758195934813e-12 6.181375446851624e-12 2.7038274908319113e-13
3.660119384959845 6.602252958468789e-20 6.4144118947179665e-12 6.1228717327169205e-12 2.915401620010454e-13
3.715437065384467 6.532298380121118e-20 6.442365441908031e-12 6.128585613933611e-12 3.13779827974419e-13
3.8285932144167436 6.668017515130516e-20 6.776499182519673e-12 6.415147035080271e-12 3.6135214743940334e-13
3.94519561050918 6.874555473613808e-20 7.199172752912874e-12 6.786285097150215e-12 4.128876557626598e-13
4.06534921144712 7.10643415227251e-20 7.668651936094758e-12 7.2004084022372965e-12 4.682435338574619e-13
4.189162171576248 7.349503703168154e-20 8.172494167049783e-12 7.64505546218701e-12 5.274387048627736e-13
4.316745939156006 7.596962543518507e-20 8.704942511344165e-12 8.114788324123635e-12 5.901541872205308e-13
4.448215356677963 7.844703411207674e-20 9.26257562383787e-12 8.60716949097926e-12 6.554061328586105e-13
4.58368876423945 8.091153435810422e-20 9.844530097051813e-12 9.12134759606383e-12 7.231825009879809e-13
4.723288106065518 8.336210624623981e-20 1.0451594439304136e-11 9.657773496731085e-12 7.938209425730491e-13
4.867139040275056 8.579147286527108e-20 1.1083765016632554e-11 1.0218502026143328e-11 8.652629904892264e-13
4.940699165968905 8.70323798550942e-20 1.141402194612587e-11 1.0512536624819181e-11 9.014853213066871e-13
5.015371051989984 8.823632818699574e-20 1.1746809595874307e-11 1.0808897460715811e-11 9.379121351584932e-13
5.091171501069577 8.952158479598659e-20 1.2098037374689797e-11 1.1122675559004394e-11 9.75361815685406e-13
5.129500256944802 9.014812106389246e-20 1.2274425328591238e-11 1.1280310841610452e-11 9.941144869807877e-13
5.168117569889187 9.077493175743002e-20 1.245282110192262e-11 1.1439737731252974e-11 1.0130833706696431e-12
5.20702561229733 9.148787250060053e-20 1.264511185595265e-11 1.1611219151476511e-11 1.0338927044761416e-12
5.246226572918644 9.219235976817594e-20 1.283841491786301e-11 1.1783643557727767e-11 1.0547713601352436e-12
5.265937586045735 9.254141243638049e-20 1.2935441736465083e-11 1.187020832933692e-11 1.0652334071281623e-12
5.285722656980489 9.28883287256042e-20 1.3032716672102919e-11 1.195700783706498e-11 1.075708835037937e-12
5.305582063971359 9.323310317026886e-20 1.3130238323621544e-11 1.2044042014083309e-11 1.0861963095382304e-12
5.3255160863122235 9.359257961717617e-20 1.3230387109831238e-11 1.213360093975049e-11 1.0967861700807482e-12
5.365609099470188 9.443539361812191e-20 1.3450030146322755e-11 1.2331326625476319e-11 1.1187035208464372e-12
5.406003951863644 9.527627086123033e-20 1.3671952545090561e-11 1.2531266819117592e-11 1.140685725972968e-12
5.446702915881641 9.611562676119424e-20 1.3896234145095216e-11 1.2733512068043595e-11 1.1627220770516217e-12
5.487708281020852 9.698561158294617e-20 1.4127579459506765e-11 1.2942674353223502e-11 1.1849051062832616e-12
5.529022354014368 9.813652148314384e-20 1.4402850039848855e-11 1.3194822601560935e-11 1.2080274382879166e-12
5.570647458961463 9.930736097359182e-20 1.4684411588234072e-11 1.3453199470054971e-11 1.2312121181790997e-12
5.612585937458331 1.0050050405504282e-19 1.4972719094027646e-11 1.3718270849932314e-11 1.2544482440953301e-12
5.654840148729818 1.0176591304575039e-19 1.527538268888611e-11 1.3997531574622865e-11 1.277851114263244e-12
5.67608639626678 1.0261867937173067e-19 1.5461258867979316e-11 1.41711452827887e-11 1.290113585190613e-12
5.686739436050992 1.030519168846885e-19 1.555567414588408e-11 1.4259422661664622e-11 1.2962514842194541e-12
5.6974124697621304 1.0348989599660013e-19 1.565110645138591e-11 1.4348712856526359e-11 1.3023935948595545e-12
5.718818669136295 1.0438061541804351e-19 1.584512291202226e-11 1.453043315640613e-11 1.3146897556161284e-12
5.740305295436557 1.0535082423601177e-19 1.6052488282229828e-11 1.4725387665885686e-11 1.3271006163441412e-12
5.7835210386641895 1.078466605348696e-19 1.6556496991750246e-11 1.5203757251085438e-11 1.3527397406648051e-12
5.827062130521658 1.1063257901860946e-19 1.711205306728529e-11 1.5733352210834715e-11 1.3787008564505714e-12
5.8489554468988025 1.1260232871394184e-19 1.7482161119793528e-11 1.6089382686278714e-11 1.392778433514814e-12
5.870931020387893 1.146759868775151e-19 1.7871001737722333e-11 1.6464108403234445e-11 1.4068933344878939e-12
5.892989160043636 1.168619135617436e-19 1.828007901761786e-11 1.6859034853687908e-11 1.421044163929947e-12
5.915130176081913 1.1932882740171667e-19 1.8736096422779407e-11 1.7300364804554917e-11 1.4357316182244876e-12
5.95966208400165 1.2625340273557476e-19 1.9972579597997993e-11 1.850304089765875e-11 1.469538700339249e-12
6.004529249263818 1.3612246137212537e-19 2.169592601349435e-11 2.0188153003788555e-11 1.5077730097057904e-12
6.027089341400364 1.4296813429490183e-19 2.2872640920522558e-11 2.1342606633146077e-11 1.5300342873764827e-12
6.049734195844842 1.509618126127722e-19 2.424224458175664e-11 2.2688593059136855e-11 1.5536515226197878e-12
6.095279466722835 1.7397967156039603e-19 2.8148908696641848e-11 2.6536630008267624e-11 1.6122786883742238e-12
6.141167624020661 2.0897315999973997e-19 3.4065196205930514e-11 3.237611458201568e-11 1.6890816239148384e-12
6.164241091010745 2.3124857461965027e-19 3.783799484595403e-11 3.610036707962757e-11 1.7376277663264659e-12
6.187401249150058 2.562217947089661e-19 4.208174909191643e-11 4.029433867331078e-11 1.7874104186056531e-12
6.1990139391386085 2.6833664266519204e-19 4.4154200732561444e-11 4.2341471831095874e-11 1.8127289014655678e-12
6.204828454712694 2.7468460296191584e-19 4.5241138810097576e-11 4.341562892820289e-11 1.8255098818947034e-12
6.210648424152782 2.792655104133362e-19 4.603876673027035e-11 4.420244349068258e-11 1.836323239587755e-12
6.233982942956859 2.9456069258835004e-19 4.874272835620045e-11 4.6869026612101235e-11 1.8737017440992055e-12
6.239830258556775 2.96361902239146e-19 4.908678433871033e-11 4.7208138727697644e-11 1.8786456110126975e-12
6.245683058788269 2.962846923534263e-19 4.9120026116450845e-11 4.7236431255137066e-11 1.883594861313776e-12
6.257405133728602 2.953250956935376e-19 4.905282914270075e-11 4.716071336727691e-11 1.892115775423842e-12
6.269149208991335 2.916375677512328e-19 4.853125330901543e-11 4.663669355841521e-11 1.89455975060022e-12
6.280915325867298 2.831982550976715e-19 4.721532080487445e-11 4.532582237067608e-11 1.8894984341983723e-12
6.304513850009849 2.6272255862794685e-19 4.3966146349091056e-11 4.20935472121564e-11 1.872599136934663e-12
6.32820103803542 2.378670524927493e-19 3.9956182837190024e-11 3.8107691702868204e-11 1.848491134321818e-12
6.3519772230701035 2.1522396335323807e-19 3.6288497745679046e-11 3.446180637989085e-11 1.8266913657882006e-12
6.375842739491607 1.961089027775878e-19 3.318977738835531e-11 3.1382510678713086e-11 1.8072667096422313e-12
6.399797922933955 1.8097484840732606e-19 3.074354299492874e-11 2.8947175214622814e-11 1.7963677803059259e-12
6.42384311029221 1.683253459483453e-19 2.8702113294834626e-11 2.691493836195182e-11 1.787174932882805e-12
6.447978639727206 1.5914542235449592e-19 2.7238750036404655e-11 2.5454139059336908e-11 1.7846109770677445e-12
6.472204850670314 1.514548294708904e-19 2.6019851520613408e-11 2.423649466450322e-11 1.783356856110183e-12
6.496522083828205 1.4643225269590643e-19 2.5251495019930303e-11 2.3464038735995163e-11 1.7874562839351404e-12
6.520930681187647 1.4217024267996062e-19 2.4608646140648986e-11 2.2816296368212706e-11 1.7923497724362732e-12
