Dust emission spectrum from A.P. Jones, M. Kohler, N. Ysard, M. Bocchio, and L. Verstraete (2017), A&A, 602A, 46J 
inside the DustPedia framework.

lambda    nu*dP/dnu     j_nu    j_nu(carb.) j_nu(sil)
 (um)   (erg s-1 H-1) (Jy cm2 sr-1 H-1)
0.9927057738263894 4.6853113937188606e-20 1.2346061642823607e-12 1.2346060881381439e-12 7.614421684434463e-20
1.0001793341362166 4.763875403273392e-20 1.2647587832714691e-12 1.2647586916619506e-12 9.160951853364861e-20
1.0077091589558085 4.8427790752883596e-20 1.2953862894982667e-12 1.2953861794302138e-12 1.100680526458947e-19
1.0114953028030835 4.882355199129074e-20 1.3108792083003993e-12 1.3108790877127674e-12 1.2058763206152165e-19
1.0152956718711033 4.9220126023023213e-20 1.3264921652023316e-12 1.3264920331341277e-12 1.3206820372972366e-19
1.0229392996569957 5.001527942860063e-20 1.3580695017799113e-12 1.3580693435250546e-12 1.582548563426282e-19
1.0267826658714554 5.0412957868414913e-20 1.3740107823802502e-12 1.374010609225913e-12 1.7315433737622912e-19
1.0306404723013447 5.081138554408887e-20 1.3900731776594781e-12 1.3900729882664946e-12 1.8939298358743966e-19
1.03451277320114 5.121055250913599e-20 1.4062571765615275e-12 1.4062569694765325e-12 2.0708499507340502e-19
1.0383996230291617 5.1610449216836396e-20 1.422563279250608e-12 1.4225630528968621e-12 2.2635374541999478e-19
1.0403485208654093 5.181066835250707e-20 1.4307622789969276e-12 1.430762042376299e-12 2.3662062861876247e-19
1.0423010764483396 5.201106652983865e-20 1.4389919975679951e-12 1.438991750235525e-12 2.4733246962828093e-19
1.0462171883269815 5.241239572969312e-20 1.455543855495055e-12 1.4555435853300552e-12 2.701649996313959e-19
1.0471985131304309 5.2512838280936013e-20 1.4597011231387226e-12 1.4597008469580062e-12 2.76180716662807e-19
1.048180758391296 5.2613324679547224e-20 1.4638661289912778e-12 1.463865846666799e-12 2.823244792488833e-19
1.0501480137395462 5.2814428526310444e-20 1.4722193896223948e-12 1.4722190946158447e-12 2.9500655038773167e-19
1.0521189612883777 5.30157063021917e-20 1.4806037065103837e-12 1.480603398277852e-12 3.08232531288607e-19
1.0531058218030118 5.311627804758446e-20 1.4848038409867703e-12 1.4848035259299353e-12 3.15056834803959e-19
1.0540936079674168 5.3216460254277533e-20 1.4889996527550036e-12 1.4889993307279564e-12 3.2202704777646166e-19
1.058054026499678 5.361760084514606e-20 1.5058601986170178e-12 1.5058598472058773e-12 3.5141114034837193e-19
1.0590464539527713 5.371798840059187e-20 1.5100947042557515e-12 1.5100943451075625e-12 3.5914818875459237e-19
1.06003981227728 5.3818416712196663e-20 1.5143369755523162e-12 1.5143366085043808e-12 3.6704793564430766e-19
1.0620293250338977 5.401939520474347e-20 1.5228448515559873e-12 1.522844468207408e-12 3.8334857890738883e-19
1.0660195594769086 5.442183697743891e-20 1.5399541955495095e-12 1.5399537775001844e-12 4.1804932542819004e-19
1.070024785945596 5.482492028634639e-20 1.5571888297179778e-12 1.5571883739784209e-12 4.557395565552804e-19
1.0740450607676866 5.522863974217554e-20 1.5745493688290895e-12 1.574548872166261e-12 4.966628282939423e-19
1.07808044048254 5.563299045197126e-20 1.592036443807657e-12 1.5920359027263394e-12 5.410813174971638e-19
1.0861967418109137 5.644295511774294e-20 1.6273751210438067e-12 1.6273744794899547e-12 6.415538520580408e-19
1.0902777775684922 5.684716718334804e-20 1.6451875753824804e-12 1.645186877144607e-12 6.982378731601e-19
1.0943741465085532 5.725197222923584e-20 1.663128131860814e-12 1.6631273721809716e-12 7.596798426519223e-19
1.1026131145906286 5.806335313699995e-20 1.6993964212136524e-12 1.6993955228403615e-12 8.98373291430963e-19
1.1109141095355224 5.887708713839546e-20 1.736185926462041e-12 1.7361848654653177e-12 1.060996723803529e-18
1.1192775983109025 5.969254201502208e-20 1.7734841788999403e-12 1.7734829274755925e-12 1.2514243487034629e-18
1.1277040513999907 6.050682732544505e-20 1.8112106160309877e-12 1.8112091419173545e-12 1.474113632555591e-18
1.1361939428280308 6.132339559603254e-20 1.8494734333856494e-12 1.8494716991994907e-12 1.7341861591044335e-18
1.1447477501889525 6.214227454005079e-20 1.8882799294186902e-12 1.888277891900279e-12 2.037518411394398e-18
1.1533659546722406 6.296378322070117e-20 1.9276464183838303e-12 1.927644027536522e-12 2.390847308161294e-18
1.1707974979042381 6.461719239870934e-20 2.0081645803021563e-12 2.008161300842515e-12 3.279459640923213e-18
1.1884924949847024 6.628169628794562e-20 2.091026280025449e-12 2.091021804298825e-12 4.475726623533563e-18
1.2064549276569216 6.796848858076305e-20 2.176647725003844e-12 2.176641646909489e-12 6.078094354237186e-18
1.2246888378427687 6.966714648983419e-20 2.2647653672051794e-12 2.2647571536609084e-12 8.213544271038442e-18
1.2431983285522175 7.137649409232918e-20 2.3554021267392755e-12 2.3553910814581754e-12 1.1045281100012306e-17
1.2619875648066055 7.309926764008353e-20 2.4487110132064427e-12 2.4486962312053047e-12 1.4782001137575427e-17
1.3004222497298317 7.657574216778598e-20 2.6432913770468024e-12 2.6432652753510727e-12 2.6101695729424034e-17
1.3400274889804893 8.010872286045762e-20 2.8494625174628067e-12 2.849417275108222e-12 4.524235458433527e-17
1.3808389325824078 8.371282147239995e-20 3.0683467434096058e-12 3.068269729697864e-12 7.701371174144293e-17
1.4228933163050095 8.741914953583296e-20 3.3017816498121377e-12 3.3016528386489436e-12 1.2881116319455283e-16
1.466228494730424 9.129132515362069e-20 3.5530441134921308e-12 3.5528323166043212e-12 2.117968878099141e-16
1.5108834753276823 9.532414182993659e-20 3.822991289636652e-12 3.822648791485731e-12 3.424981509214274e-16
1.5568984535646726 9.951639204957768e-20 4.1126745406444615e-12 4.112129247263696e-12 5.452933807652217e-16
1.6043148490894465 1.0389316104643424e-19 4.424314556852075e-12 4.423458204429688e-12 8.563524223869462e-16
1.6531753430134553 1.0848088406498833e-19 4.760379409785365e-12 4.7590544429601915e-12 1.3249668251743735e-15
1.7035239163302658 1.1330989620323556e-19 5.123721432591844e-12 5.121701260571195e-12 2.0201720206488526e-15
1.755405889504358 1.1846476801109823e-19 5.519963327467988e-12 5.516926508150829e-12 3.0368193171570293e-15
1.8088679632656115 1.2394678073283545e-19 5.9512960015702275e-12 5.946793546715245e-12 4.50245485498391e-15
1.8639582606462262 1.2975467031351128e-19 6.419905193343032e-12 6.41331875017667e-12 6.586443166362598e-15
1.9207263702978936 1.359050259099393e-19 6.928998219510891e-12 6.919488111800556e-12 9.510107710333193e-15
1.979223391128241 1.4242244902908297e-19 7.482430600019543e-12 7.468871881566596e-12 1.3558718452946159e-14
2.039501978296691 1.493281576491588e-19 8.084166897595959e-12 8.065072627310037e-12 1.9094270285923587e-14
2.1016163906111602 1.5668732689715052e-19 8.740912070021577e-12 8.714340600798076e-12 2.6571469223499287e-14
2.1656225393682647 1.6453176842976278e-19 9.458057751696472e-12 9.42150644859847e-12 3.655130309800214e-14
2.231578038680979 1.7284471530306022e-19 1.023853024270946e-11 1.0188814106187225e-11 4.971613652223073e-14
2.299542257339062 1.8163362562092804e-19 1.1086822125648011e-11 1.1019937086185801e-11 6.68850394622068e-14
2.369576372248914 1.909219197096332e-19 1.2008698363856497e-11 1.1919668675072557e-11 8.902968878393627e-14
2.4417434235010123 2.007381497225566e-19 1.30106614577102e-11 1.2893376522319691e-11 1.172849353905104e-13
2.5161083711144245 2.1114372837979644e-19 1.4101878280061117e-11 1.3948914850356044e-11 1.529634297050727e-13
2.5927381535095444 2.2224115504726975e-19 1.5295109031080364e-11 1.5097547139929896e-11 1.975618911504647e-13
2.6717017477616296 2.3411484968013214e-19 1.6602992398455675e-11 1.6350239184921017e-11 2.5275321353465643e-13
2.753070231689431 2.468880027640648e-19 1.804208439520698e-11 1.7721701179164097e-11 3.203832160428853e-13
2.836916847834745 2.6090500999147737e-19 1.964710011594074e-11 1.9244625757479696e-11 4.024743584610383e-13
2.9233170693905177 2.7691698768370196e-19 2.148794848658009e-11 2.0986846813705002e-11 5.01101672875081e-13
2.967498994190263 2.8635091903543107e-19 2.2555818681400816e-11 2.199966389003536e-11 5.561547913654512e-13
3.0123486681368425 2.963902098210692e-19 2.369946409671911e-11 2.3082999160114613e-11 6.164649366044964e-13
3.0578761833420214 3.115900137619275e-19 2.5291399391105757e-11 2.4608748684223243e-11 6.826507068825172e-13
3.1040917844459814 3.290400192986806e-19 2.711144774291243e-11 2.635701843522594e-11 7.54429307686488e-13
3.127460860933648 3.44205647807781e-19 2.857454399512731e-11 2.778177973598148e-11 7.927642591458421e-13
3.1510058709225794 3.631211043725768e-19 3.0371772348762407e-11 2.953911985675113e-11 8.326524920112771e-13
3.162844764501044 3.7972404254416964e-19 3.187978660065731e-11 3.10265188764294e-11 8.532677242279039e-13
3.1747281389236908 3.9839326726785052e-19 3.357283103477518e-11 3.2698547861825614e-11 8.742831729495671e-13
3.1986289994194426 4.483963490751977e-19 3.807109526723217e-11 3.715345222481972e-11 9.176430424124417e-13
3.2227097969389145 5.623553742464657e-19 4.810624760434207e-11 4.714273030392152e-11 9.635173004205636e-13
3.2348180950136065 6.685988834208289e-19 5.7409655902698234e-11 5.642167521640465e-11 9.87980686293574e-13
3.240889293275058 7.477936606320293e-19 6.433027504613685e-11 6.33293904040223e-11 1.000884642114576e-12
3.2469718861334385 8.395245068722295e-19 7.235713119249121e-11 7.134289480609018e-11 1.0142363864010407e-12
3.2714166318528037 1.3194930557724813e-18 1.1458094488343874e-10 1.135115907205672e-10 1.0693541628715548e-12
3.2744851364798273 1.3495381437639401e-18 1.1729989424692334e-10 1.1622406118124838e-10 1.0758330656749708e-12
3.2775565192852394 1.3803750972032064e-18 1.2009273576431941e-10 1.190103929207221e-10 1.0823428435973113e-12
3.283707930232385 1.3511364946361208e-18 1.177695944213749e-10 1.1667564369508853e-10 1.0939507262864177e-12
3.2898708863219004 1.2576359180109339e-18 1.0982550764863639e-10 1.0872102405969373e-10 1.104483588942638e-12
3.29141343181113 1.2355395001967276e-18 1.079464848239082e-10 1.0683935715726722e-10 1.1071276666409623e-12
3.292184975758714 1.2246751279632078e-18 1.070223688510002e-10 1.059139175149614e-10 1.1084513360388197e-12
3.295272960557952 1.1569473588150812e-18 1.0119858190490825e-10 1.0008498759697525e-10 1.1135943079329993e-12
3.3076538914384823 9.204839665928998e-19 8.08175574227237e-11 7.968332176349288e-11 1.1342356592308131e-12
3.310756385682612 8.718424060263298e-19 7.661867680720818e-11 7.547924145927893e-11 1.1394353479292662e-12
3.313861789986515 8.267622473038655e-19 7.272512253043543e-11 7.15804717421102e-11 1.1446507883252215e-12
3.3200813396944477 7.639405611951723e-19 6.732521146369537e-11 6.616932827363857e-11 1.1558831900568128e-12
3.345076488085796 6.553189057439998e-19 5.818729699925811e-11 5.698131819446657e-11 1.2059788047915626e-12
3.3482140837626964 6.60010499029606e-19 5.865884345689695e-11 5.7446076673514284e-11 1.2127667833826415e-12
3.3513546224236106 6.647423486186533e-19 5.913480447837441e-11 5.79152207896149e-11 1.219583688759495e-12
3.3576445397418455 6.968903192367907e-19 6.211100863328345e-11 6.087716680467725e-11 1.2338418286061944e-12
3.3702598118196083 8.125141119441781e-19 7.268816870240106e-11 7.142442240425966e-11 1.2637462981413987e-12
3.382922481734668 8.407944171377712e-19 7.550075570281914e-11 7.420799477300585e-11 1.2927609298132973e-12
3.389271646505754 8.553538543622341e-19 7.69523041477658e-11 7.564484679961626e-11 1.3074573481495475e-12
3.395632727569191 8.713729089707824e-19 7.85405968643565e-11 7.721799390084616e-11 1.3226029635103193e-12
3.421196662673239 9.488381538509438e-19 8.616673013495888e-11 8.478148705446698e-11 1.3852430804919165e-12
3.4276182099114902 9.355883962651959e-19 8.512295691187835e-11 8.372379158333593e-11 1.399165328542411e-12
3.4340518103208963 8.74078269058356e-19 7.96758305600645e-11 7.826352490440066e-11 1.412305655663855e-12
3.4469541582030403 7.859501877143691e-19 7.191176740698937e-11 7.047429662650903e-11 1.4374707804803312e-12
3.472904465399547 7.628060703622271e-19 7.03196029980127e-11 6.882407640908503e-11 1.4955265889276992e-12
3.4990501388274233 7.271439147799606e-19 6.753672123112878e-11 6.5981909802237e-11 1.5548114288917934e-12
3.5253949054701885 5.970052784230492e-19 5.586700331469358e-11 5.425479780616734e-11 1.612205508526232e-12
3.5519380250092896 4.731676144629378e-19 4.4611808021771844e-11 4.294207758640468e-11 1.6697304353671647e-12
3.578680990867387 4.2614518677787303e-19 4.048088578957323e-11 3.8748125967804967e-11 1.7327598217682739e-12
3.605625307711299 4.0935908557757e-19 3.9179100437581877e-11 3.7380055354582586e-11 1.7990450829992993e-12
3.660119384959845 4.016725049084224e-19 3.9024449827552386e-11 3.708658836492989e-11 1.937861462622501e-12
3.715437065384467 3.9791732506062605e-19 3.924390275110995e-11 3.7160346596304025e-11 2.0835561548059224e-12
3.8285932144167436 4.061782738127881e-19 4.127863692925131e-11 3.888420233015147e-11 2.39443459909984e-12
3.94519561050918 4.1841887664319867e-19 4.3817666285419356e-11 4.108760338140907e-11 2.7300629040102813e-12
4.06534921144712 4.320162195835657e-19 4.661947114045118e-11 4.353021599154151e-11 3.089255148909668e-12
4.189162171576248 4.46147353569532e-19 4.9610651167097946e-11 4.613876153854968e-11 3.4718896285482694e-12
4.316745939156006 4.60408150376281e-19 5.27556435591377e-11 4.8880020955972726e-11 3.8756226031649856e-12
4.448215356677963 4.745456875519894e-19 5.603163163105182e-11 5.1737832699279765e-11 4.293798931772071e-12
4.58368876423945 4.8845969761140875e-19 5.943103455497256e-11 5.4704924357226563e-11 4.726110197745987e-12
4.723288106065518 5.021359479306951e-19 6.29557183411964e-11 5.7781209307956065e-11 5.174509033240344e-12
4.867139040275056 5.155094293984165e-19 6.660085423971493e-11 6.097545713979657e-11 5.625397099918369e-12
4.940699165968905 5.222742449352812e-19 6.849461893967375e-11 6.26416072954366e-11 5.8530116442371535e-12
5.015371051989984 5.287808562378774e-19 7.039603940687525e-11 6.431482243487196e-11 6.081216972003298e-12
5.091171501069577 5.357004478030899e-19 7.239509950510163e-11 6.607984206554814e-11 6.3152574395535026e-12
5.129500256944802 5.390495359049213e-19 7.339613071011494e-11 6.696396642175136e-11 6.4321642883635975e-12
5.168117569889187 5.423880782449855e-19 7.440668448255338e-11 6.785639971626638e-11 6.550284766287002e-12
5.20702561229733 5.462092735935964e-19 7.549500466637622e-11 6.881478920726745e-11 6.680215459108782e-12
5.246226572918644 5.499686155119368e-19 7.658688090314206e-11 6.977650116010425e-11 6.8103797430378055e-12
5.265937586045735 5.518249587237083e-19 7.71341112521382e-11 7.025858377901088e-11 6.875527473127338e-12
5.285722656980489 5.53665692184282e-19 7.76821824259231e-11 7.074147532836926e-11 6.940707097553823e-12
5.305582063971359 5.554907806736481e-19 7.82310798290095e-11 7.122517013981239e-11 7.005909689197126e-12
5.3255160863122235 5.573952878919246e-19 7.879423200183499e-11 7.172251007234328e-11 7.0717219294917135e-12
5.365609099470188 5.618916873679514e-19 8.002783537524061e-11 7.281986851240189e-11 7.207966862838718e-12
5.406003951863644 5.663610099809178e-19 8.127166168296732e-11 7.392726157653492e-11 7.344400106432387e-12
5.446702915881641 5.708054960561032e-19 8.252608958385651e-11 7.50451396285602e-11 7.480949955296326e-12
5.487708281020852 5.75405422550919e-19 8.381744153427171e-11 7.619922990841442e-11 7.618211625857254e-12
5.529022354014368 5.815628142559091e-19 8.5352138794924e-11 7.75908419547303e-11 7.761296840193717e-12
5.570647458961463 5.878115507370084e-19 8.691870031301841e-11 7.901416465382436e-11 7.904535659194055e-12
5.612585937458331 5.941645870242287e-19 8.851955063091377e-11 8.047169538725283e-11 8.04785524366095e-12
5.654840148729818 6.009006554301612e-19 9.019707282114836e-11 8.200507848351364e-11 8.191994337634696e-12
5.67608639626678 6.054890927996123e-19 9.122728593690798e-11 8.29597120835404e-11 8.267573853367571e-12
5.686739436050992 6.078190492543767e-19 9.175021053166826e-11 8.344482915263446e-11 8.305381379033792e-12
5.6974124697621304 6.101737707073168e-19 9.227852194863048e-11 8.393532274305744e-11 8.343199205573049e-12
5.718818669136295 6.149604388705367e-19 9.335185178694022e-11 8.493299067384785e-11 8.418861113092373e-12
5.740305295436557 6.201831044560597e-19 9.449837805554408e-11 8.600319135001275e-11 8.495186705531328e-12
5.7835210386641895 6.336969647621078e-19 9.728443920962049e-11 8.863160326352498e-11 8.652835946095492e-12
5.827062130521658 6.487885149373624e-19 1.0035112256748422e-10 9.153886649506419e-11 8.812256072420026e-12
5.8489554468988025 6.595265541601233e-19 1.0239530224903713e-10 9.349645052432806e-11 8.898851724709059e-12
5.870931020387893 6.708283564834674e-19 1.0454128236310003e-10 9.555567492751457e-11 8.985607435585452e-12
5.892989160043636 6.827396600419136e-19 1.0679728367988508e-10 9.772476997509397e-11 9.072513704791097e-12
5.915130176081913 6.961975231461523e-19 1.093115905602107e-10 1.0014882333459892e-10 9.16276722561179e-12
5.95966208400165 7.341122505741889e-19 1.1613243715234182e-10 1.0676113814108894e-10 9.371299011252858e-12
6.004529249263818 7.882537511266412e-19 1.2563609922943294e-10 1.1602850620626323e-10 9.607593023169674e-12
6.027089341400364 8.258641457329385e-19 1.3212520501610278e-10 1.2237964949707436e-10 9.745555519028436e-12
6.049734195844842 8.697854555904653e-19 1.396747388173235e-10 1.297827301072157e-10 9.89200871010777e-12
6.095279466722835 9.963608894665182e-19 1.6120545265405744e-10 1.5094862392040438e-10 1.0256828733653021e-11
6.141167624020661 1.1888071088733527e-18 1.9379018537512742e-10 1.8305388275582205e-10 1.073630261930541e-11
6.164241091010745 1.3112797717983062e-18 2.145578511284453e-10 2.0351774839249294e-10 1.1040102735952379e-11
6.187401249150058 1.4484867072899901e-18 2.3789878705826017e-10 2.2654729008719506e-10 1.1351496971065109e-11
6.1990139391386085 1.5149926686579163e-18 2.492886910109567e-10 2.3777884934107927e-10 1.1509841669877375e-11
6.204828454712694 1.5498330117487284e-18 2.552607960582239e-10 2.4367103613535503e-10 1.1589759922868932e-11
6.210648424152782 1.5749239495196442e-18 2.596366311849027e-10 2.4797941158649515e-10 1.1657219598407504e-11
6.233982942956859 1.6585250085434753e-18 2.744461022719531e-10 2.6255635418231203e-10 1.188974808964106e-11
6.239830258556775 1.66825816139241e-18 2.7631563966505673e-10 2.6439564119443423e-10 1.1919998470622454e-11
6.245683058788269 1.6676514753892715e-18 2.764742362273159e-10 2.6452395994593764e-10 1.1950276281378193e-11
6.257405133728602 1.6620006813314298e-18 2.760545468205085e-10 2.6405245083930324e-10 1.2002095981205261e-11
6.269149208991335 1.6413199759539622e-18 2.7313118857895194e-10 2.6111575295146435e-10 1.2015435627487626e-11
6.280915325867298 1.5944837125589014e-18 2.6583518313222384e-10 2.5385391317594994e-10 1.1981269956273856e-11
6.304513850009849 1.481068418927353e-18 2.478541287038537e-10 2.3598404828932917e-10 1.1870080414524572e-11
6.32820103803542 1.3436811459549257e-18 2.2570746549397194e-10 2.139941603843013e-10 1.1713305109670611e-11
6.3519772230701035 1.2185884910372342e-18 2.0546385737417846e-10 1.9389268744890337e-10 1.1571169925275111e-11
6.375842739491607 1.1129718899640531e-18 1.8836110316367336e-10 1.7691698561660714e-10 1.1444117547066268e-11
6.399797922933955 1.0293623873954725e-18 1.7486544176032654e-10 1.6349450021944953e-10 1.137094154087707e-11
6.42384311029221 9.594521289577485e-19 1.6360164627118234e-10 1.5229307488534338e-10 1.1308571385838965e-11
6.447978639727206 9.086647533280228e-19 1.555237449912997e-10 1.4423569815008745e-10 1.1288046841212273e-11
6.472204850670314 8.660843806035169e-19 1.487927923219988e-10 1.3751700617231154e-10 1.1275786149687296e-11
6.496522083828205 8.381841559447737e-19 1.4454058207775988e-10 1.3324330065015728e-10 1.1297281427602613e-11
6.520930681187647 8.1447273408020905e-19 1.4097937041090742e-10 1.2965561660522517e-10 1.1323753805682246e-11
6.57002334288761 7.888533745253073e-19 1.3757281799604539e-10 1.2614988829766814e-10 1.1422929698377234e-11
