Dust emission spectrum from A.P. Jones, M. Kohler, N. Ysard, M. Bocchio, and L. Verstraete (2017), A&A, 602A, 46J 
inside the DustPedia framework.

lambda    nu*dP/dnu     j_nu    j_nu(carb.) j_nu(sil)
 (um)   (erg s-1 H-1) (Jy cm2 sr-1 H-1)
0.9927057738263894 7.148085279971034e-24 1.8835610715862237e-16 1.883561071579209e-16 7.015267097065069e-28
1.0001793341362166 7.266113201643284e-24 1.9290765845195057e-16 1.9290765845110547e-16 8.450796058642916e-28
1.0077091589558085 7.383971103954836e-24 1.9751251877094822e-16 1.9751251876993155e-16 1.0166997740679808e-27
1.0114953028030835 7.442821782820445e-24 1.9983470944361118e-16 1.9983470944249657e-16 1.1146288567626618e-27
1.0152956718711033 7.50161258494764e-24 2.021699480342991e-16 2.021699480330775e-16 1.2215958827520629e-27
1.0229392996569957 7.618933877778932e-24 2.0687761527475326e-16 2.0687761527328733e-16 1.4659062431727507e-27
1.0267826658714554 7.677322015680355e-24 2.0924626674125663e-16 2.0924626673965164e-16 1.6050916817540935e-27
1.0306404723013447 7.735624462387619e-24 2.116274524393973e-16 2.1162745243764039e-16 1.756923378105009e-27
1.03451277320114 7.793835592030858e-24 2.1402106982303617e-16 2.1402106982111364e-16 1.92249425976899e-27
1.0383996230291617 7.85194981005305e-24 2.1642701506764652e-16 2.1642701506554351e-16 2.1029864821739636e-27
1.0403485208654093 7.880968837733739e-24 2.1763457784914038e-16 2.1763457784694116e-16 2.199223587700277e-27
1.0423010764483396 7.909961554282663e-24 2.1884518309489399e-16 2.1884518309259436e-16 2.2996782533158803e-27
1.0462171883269815 7.967865295982704e-24 2.212754675972492e-16 2.2127546759473521e-16 2.5139511422636132e-27
1.0471985131304309 7.982323711380262e-24 2.2188491934911535e-16 2.2188491934654497e-16 2.5704387860200757e-27
1.048180758391296 7.996774947548858e-24 2.2249511997544267e-16 2.2249511997281453e-16 2.628142423300768e-27
1.0501480137395462 8.025655540875878e-24 2.2371776106261874e-16 2.2371776105987143e-16 2.747297902809189e-27
1.0521189612883777 8.054506394727749e-24 2.2494337723559635e-16 2.2494337723272475e-16 2.8716229210408707e-27
1.0531058218030118 8.068898292316084e-24 2.255566771118549e-16 2.255566771089191e-16 2.9357945139304366e-27
1.0540936079674168 8.083209881918554e-24 2.261686825807829e-16 2.2616868257778146e-16 3.0013532215645267e-27
1.058054026499678 8.140374659525316e-24 2.2862392215222464e-16 2.2862392214894673e-16 3.277894809952923e-27
1.0590464539527713 8.154645040723138e-24 2.292395277211415e-16 2.292395277177908e-16 3.3507537659480265e-27
1.06003981227728 8.168906929972588e-24 2.298558480465214e-16 2.2985584804309623e-16 3.42516287989322e-27
1.0620293250338977 8.197404900527439e-24 2.310906259052649e-16 2.31090625901686e-16 3.5787577394248806e-27
1.0660195594769086 8.25429529392448e-24 2.3356868079357805e-16 2.335686807896721e-16 3.90597134615722e-27
1.070024785945596 8.311040568969022e-24 2.3605797272001785e-16 2.3605797271575617e-16 4.261724467419733e-27
1.0740450607676866 8.367635496033377e-24 2.385583865613461e-16 2.385583865566977e-16 4.648377146620587e-27
1.07808044048254 8.424074887452381e-24 2.4106980619291632e-16 2.4106980618784784e-16 5.0684731310455176e-27
1.0861967418109137 8.536366725130993e-24 2.461223159490003e-16 2.461223159429802e-16 6.020170256477982e-27
1.0902777775684922 8.591982062835815e-24 2.486565793524226e-16 2.4865657934586466e-16 6.557904061140417e-27
1.0943741465085532 8.647417584362059e-24 2.512011882300947e-16 2.5120118822295335e-16 7.141374149828259e-27
1.1026131145906286 8.757729477419976e-24 2.563209550913958e-16 2.563209550829353e-16 8.460525792021008e-27
1.1109141095355224 8.867263478700247e-24 2.6148063374403147e-16 2.61480633734021e-16 1.0010531702093507e-26
1.1192775983109025 8.975879676023533e-24 2.6667620543168073e-16 2.6667620541985127e-16 1.182940807408536e-26
1.1277040513999907 9.083073268930378e-24 2.718926021750881e-16 2.718926021611272e-16 1.3961015100122487e-26
1.1361939428280308 9.189362435383042e-24 2.7714515037540674e-16 2.771451503589508e-16 1.645588093649203e-26
1.1447477501889525 9.294711742641292e-24 2.824328166818245e-16 2.824328166624524e-16 1.937214389281262e-26
1.1533659546722406 9.399144040481681e-24 2.877563167067024e-16 2.877563166839257e-16 2.2776640925946572e-26
1.1707974979042381 9.605595301719294e-24 2.9852142350299297e-16 2.985214234716244e-16 3.1368602373443416e-26
1.1884924949847024 9.807933917094794e-24 3.0941645615560363e-16 3.094164561126152e-16 4.29883852087277e-26
1.2064549276569216 1.0007743556579297e-23 3.204916381061838e-16 3.2049163804755817e-16 5.862560851935116e-26
1.2246888378427687 1.0202840591289584e-23 3.316777158605117e-16 3.3167771578094736e-16 7.956429742290583e-26
1.2431983285522175 1.0392768575792964e-23 3.429581337305083e-16 3.4295813362304353e-16 1.0746477285453503e-25
1.2619875648066055 1.0577456676913616e-23 3.5432823737716435e-16 3.5432823723270144e-16 1.4446294772526073e-25
1.3004222497298317 1.0928042213621182e-23 3.772212835753637e-16 3.772212833179379e-16 2.5742586715344655e-25
1.3400274889804893 1.1253226712147445e-23 4.0027660623963416e-16 4.0027660578922683e-16 4.504072661369869e-25
1.3808389325824078 1.1551805978573315e-23 4.2341120071482975e-16 4.23411199940696e-16 7.74133941354212e-25
1.4228933163050095 1.1825236969570376e-23 4.466338398179376e-16 4.466338385102712e-16 1.3076664822686077e-24
1.466228494730424 1.2080108125298827e-23 4.701559210879651e-16 4.701559189159444e-16 2.1720207709820192e-24
1.5108834753276823 1.2311462630400817e-23 4.937533503598578e-16 4.937533468108423e-16 3.549015789279565e-24
1.5568984535646726 1.251529071736392e-23 5.172144652955692e-16 5.172144595849954e-16 5.71057375447736e-24
1.6043148490894465 1.2691967981732775e-23 5.404904243079437e-16 5.40490415242828e-16 9.065115712365662e-24
1.6531753430134553 1.2842035054638807e-23 5.635366984769515e-16 5.635366842963742e-16 1.418057718098729e-23
1.7035239163302658 1.2967279623434277e-23 5.863629811277196e-16 5.863629592628435e-16 2.1864876271674106e-23
1.755405889504358 1.3078016772872569e-23 6.093809509296869e-16 6.093809176827768e-16 3.3246910177803606e-23
1.8088679632656115 1.3171702980968381e-23 6.324383967137708e-16 6.324383468411489e-16 4.987262221534508e-23
1.8639582606462262 1.324661656934731e-23 6.554062547598432e-16 6.554061809262869e-16 7.383355637449743e-23
1.9207263702978936 1.3304010941541166e-23 6.782932971690076e-16 6.782931892515082e-16 1.0791749950508838e-22
1.979223391128241 1.3346799941536552e-23 7.011991787509508e-16 7.011990229586316e-16 1.5579231904183099e-22
2.039501978296691 1.3378469943708736e-23 7.242691905000002e-16 7.242689682848096e-16 2.2221519056008796e-22
2.1016163906111602 1.3408781073874806e-23 7.480182261954246e-16 7.48017912897918e-16 3.132975068266902e-22
2.1656225393682647 1.3443393598795236e-23 7.727893175260594e-16 7.727888807608111e-16 4.367652484399244e-22
2.231578038680979 1.348271466328579e-23 7.986543389066507e-16 7.986537366447047e-16 6.022619461276365e-22
2.299542257339062 1.353013405052825e-23 8.25872351782732e-16 8.258715300980208e-16 8.216847110055424e-22
2.369576372248914 1.359314424126255e-23 8.54988098055871e-16 8.549869884937275e-16 1.1095621432725795e-21
2.4417434235010123 1.368059211567098e-23 8.866951937338377e-16 8.866937103297707e-16 1.4834040668285578e-21
2.5161083711144245 1.3807627172663367e-23 9.221845196136768e-16 9.22182555470104e-16 1.964143572847245e-21
2.5927381535095444 1.3999039670761796e-23 9.634436882276789e-16 9.634411117042383e-16 2.5765234408381572e-21
2.6717017477616296 1.4284425867986406e-23 1.0130250790435382e-15 1.0130217297108207e-15 3.3493327174234177e-21
2.753070231689431 1.4708343957736935e-23 1.0748565342513583e-15 1.0748522184929624e-15 4.315758395813982e-21
2.836916847834745 1.537174420875202e-23 1.157548478796358e-15 1.1575429649327712e-15 5.513863586513071e-21
2.9233170693905177 1.649695922322864e-23 1.2801157954919234e-15 1.280108809794916e-15 6.985697007267717e-21
2.967498994190263 1.7452247732463515e-23 1.3747109203013528e-15 1.3747030938754903e-15 7.826425862682758e-21
3.0123486681368425 1.8567857413859303e-23 1.4846923263707514e-15 1.4846835696498113e-15 8.756720940291572e-21
3.0578761833420214 2.1063472573583166e-23 1.7096975958578898e-15 1.709687808571786e-15 9.787286103229892e-21
3.1040917844459814 2.4279253356883573e-23 2.0005034950613977e-15 2.0004925761538304e-15 1.0918907567690658e-20
3.127460860933648 2.7680812483087305e-23 2.297947750585884e-15 2.297936221736003e-15 1.1528849880791438e-20
3.1510058709225794 3.2212859539783794e-23 2.6943122414640345e-15 2.6943000738502455e-15 1.2167613788873773e-20
3.162844764501044 3.643135549281026e-23 3.058599689663787e-15 3.0585871903306853e-15 1.2499333100648914e-20
3.1747281389236908 4.1337120463961755e-23 3.483503047925952e-15 3.4834902093166556e-15 1.2838609296858127e-20
3.1986289994194426 5.502067161944354e-23 4.671530522519137e-15 4.67151698046768e-15 1.3542051456815908e-20
3.2227097969389145 8.727569853958401e-23 7.465930897189308e-15 7.465916606538578e-15 1.429065072876186e-20
3.2348180950136065 1.1786344081247668e-22 1.0120417111575342e-14 1.0120402420569255e-14 1.469100608693515e-20
3.240889293275058 1.4073169307604234e-22 1.2106693329866603e-14 1.2106678427641527e-14 1.4902225074559703e-20
3.2469718861334385 1.6718671298798635e-22 1.440952685274525e-14 1.4409511731934687e-14 1.512081056251422e-20
3.2714166318528037 3.0830187888473054e-22 2.6772039790138202e-14 2.6772023763367036e-14 1.6026771165357655e-20
3.2744851364798273 3.1712334280891235e-22 2.7563900099160866e-14 2.756388396491606e-14 1.613424480384592e-20
3.2775565192852394 3.2619817789779915e-22 2.8379265653555907e-14 2.8379249411230846e-14 1.624232506469788e-20
3.283707930232385 3.1747071688303514e-22 2.7671813851825077e-14 2.7671797414820237e-14 1.643700482922265e-20
3.2898708863219004 2.8979374894427816e-22 2.5306803929028793e-14 2.530678731356002e-14 1.66154687737996e-20
3.29141343181113 2.8326683414515966e-22 2.4748426908486772e-14 2.4748410248168195e-14 1.666031857546738e-20
3.292184975758714 2.8005974010947035e-22 2.447396548026525e-14 2.4473948797486624e-14 1.6682778631663588e-20
3.295272960557952 2.5981630619227417e-22 2.27262213289966e-14 2.272620455861079e-14 1.6770385808837776e-20
3.3076538914384823 1.8968698454172065e-22 1.665432459653454e-14 1.665430747357237e-14 1.7122962172257432e-20
3.310756385682612 1.754139029847876e-22 1.541560842576923e-14 1.5415591213789056e-14 1.721198017662492e-20
3.313861789986515 1.6224477092906415e-22 1.4271661392639706e-14 1.4271644091290375e-14 1.730134932769656e-20
3.3200813396944477 1.437765297418691e-22 1.2670861792236508e-14 1.2670844299240875e-14 1.749299563736909e-20
3.345076488085796 1.1083096490984217e-22 9.84094036567079e-15 9.840922019915748e-15 1.8345755040473138e-20
3.3482140837626964 1.1206634751224446e-22 9.9599663114027e-15 9.9599478501594e-15 1.8461243301869953e-20
3.3513546224236106 1.1331538762387234e-22 1.0080421843821829e-14 1.0080403266490967e-14 1.8577330860324998e-20
3.3576445397418455 1.2244377101918669e-22 1.091291686644941e-14 1.0912898046612948e-14 1.8819836460845163e-20
3.3702598118196083 1.5611313820867388e-22 1.3966007432930529e-14 1.3965988104196774e-14 1.9328733755610362e-20
3.382922481734668 1.637814505645589e-22 1.470707111712648e-14 1.4707051291164283e-14 1.982596219493554e-20
3.389271646505754 1.6775415883155525e-22 1.5092080297087885e-14 1.509206021856046e-14 2.007852742046813e-20
3.395632727569191 1.720349340819925e-22 1.550625026922081e-14 1.550622993036984e-14 2.033885096640146e-20
3.421196662673239 1.925895154150605e-22 1.7489609512687197e-14 1.7489588093115597e-14 2.141957159929088e-20
3.4276182099114902 1.8844703724330727e-22 1.7145540812037017e-14 1.7145519148440446e-14 2.1663596569642435e-20
3.4340518103208963 1.7029529629521772e-22 1.552311692568561e-14 1.552309502991039e-14 2.1895775218963027e-20
3.4469541582030403 1.4444389350607745e-22 1.3216124680084583e-14 1.3216102335843022e-14 2.234424156906967e-20
3.472904465399547 1.3719865811562114e-22 1.264771682528589e-14 1.2647693451558898e-14 2.3373726990509693e-20
3.4990501388274233 1.261175521512444e-22 1.1713727900161858e-14 1.1713703466082508e-14 2.443407935128848e-20
3.5253949054701885 8.668295850161157e-23 8.111682266409274e-15 8.111656791563001e-15 2.5474846273264144e-20
3.5519380250092896 4.9619322974637637e-23 4.678273920389397e-15 4.6782473906387686e-15 2.6529750630826945e-20
3.578680990867387 3.492330877600427e-23 3.3174761039653146e-15 3.3174484160289596e-15 2.7687936356308484e-20
3.605625307711299 2.897890536926514e-23 2.7735244777374737e-15 2.7734955641599154e-15 2.891357755864511e-20
3.660119384959845 2.464191557190583e-23 2.3940827070298605e-15 2.3940511930580265e-15 3.151397183436357e-20
3.715437065384467 2.1570351936956364e-23 2.127338370080165e-15 2.1273040771455073e-15 3.4292934657568595e-20
3.8285932144167436 2.0009814108067362e-23 2.0335352844830527e-15 2.0334948846005648e-15 4.039988248775652e-20
3.94519561050918 1.9708365813698503e-23 2.0638997054428077e-15 2.063852437492299e-15 4.726795050881099e-20
4.06534921144712 1.992420176555057e-23 2.1500483248081867e-15 2.1499933764951622e-15 5.494831302482121e-20
4.189162171576248 2.0439861730546808e-23 2.2728698088306275e-15 2.2728062905054802e-15 6.351832514756995e-20
4.316745939156006 2.1174368432120434e-23 2.4262546887622416e-15 2.4261816662188343e-15 7.302254340755717e-20
4.448215356677963 2.2100601630945043e-23 2.6095122174597125e-15 2.6094287955164094e-15 8.342194330340505e-20
4.58368876423945 2.322194817282534e-23 2.8254212395449218e-15 2.825326428207653e-15 9.481133726851101e-20
4.723288106065518 2.4564362710149786e-23 3.0797777103674354e-15 3.079670362927521e-15 1.0734743991403109e-19
4.867139040275056 2.617970122990181e-23 3.3822668727644654e-15 3.382146007180368e-15 1.2086558409718325e-19
4.940699165968905 2.715469127380879e-23 3.561252061078557e-15 3.561124001797773e-15 1.2805928078428087e-19
5.015371051989984 2.816463501316595e-23 3.749528245733542e-15 3.7493927029865535e-15 1.3554274698992463e-19
5.091171501069577 2.9397341357106097e-23 3.972786398557234e-15 3.972642938847059e-15 1.4345971017514211e-19
5.129500256944802 3.003012311336106e-23 4.0888539817940885e-15 4.088706448640314e-15 1.475331537743792e-19
5.168117569889187 3.0689898480863014e-23 4.210147096993795e-15 4.209995384975309e-15 1.5171201848634713e-19
5.20702561229733 3.1499743424625955e-23 4.353776824743516e-15 4.353620609583343e-15 1.5621516017253805e-19
5.246226572918644 3.233033113414443e-23 4.502219127222401e-15 4.502058314134386e-15 1.6081308801565316e-19
5.265937586045735 3.275361123879849e-23 4.578300878318396e-15 4.578137730380733e-15 1.631479376643015e-19
5.285722656980489 3.318232990240934e-23 4.65565383801706e-15 4.655488331122922e-15 1.6550689413729991e-19
5.305582063971359 3.3616575250804195e-23 4.734301762550073e-15 4.734133872454581e-15 1.6789009549120937e-19
5.3255160863122235 3.408313035413054e-23 4.818042310025516e-15 4.817871999373155e-15 1.7031065236095057e-19
5.365609099470188 3.524527009500945e-23 5.019833424003393e-15 5.0196580967502e-15 1.753272531947056e-19
5.406003951863644 3.645173848858746e-23 5.230750892086115e-15 5.23057044129326e-15 1.804507928550435e-19
5.446702915881641 3.7704679982686755e-23 5.45127862201946e-15 5.451092939358587e-15 1.8568266087330525e-19
5.487708281020852 3.905863105912877e-23 5.689544096914568e-15 5.6893530567746754e-15 1.9104013989065443e-19
5.529022354014368 4.094069065192053e-23 6.008595159843067e-15 6.008398510188291e-15 1.9664965477637336e-19
5.570647458961463 4.293381367521062e-23 6.3485504486117524e-15 6.348348067455082e-15 2.0238115666823883e-19
5.612585937458331 4.504599806070933e-23 6.71102181640523e-15 6.710813579971144e-15 2.0823643408571566e-19
5.654840148729818 4.736791287767868e-23 7.110072270024932e-15 7.109858032043096e-15 2.1423798183450755e-19
5.67608639626678 4.89493345474676e-23 7.375054302854413e-15 7.374836925894881e-15 2.1737695953160153e-19
5.686739436050992 4.9764496674245573e-23 7.511944636262416e-15 7.511725676689422e-15 2.1895957299786347e-19
5.6974124697621304 5.0596479908138054e-23 7.651866740050568e-15 7.651646189066747e-15 2.205509838213565e-19
5.718818669136295 5.2312530454853404e-23 7.941115039189302e-15 7.94089127884786e-15 2.2376034144196567e-19
5.740305295436557 5.420420140509694e-23 8.259188423183843e-15 8.258961399309684e-15 2.270238741603443e-19
5.7835210386641895 5.911184659350219e-23 9.074783636769976e-15 9.07454983087533e-15 2.3380589464778646e-19
5.827062130521658 6.476566372606871e-23 1.001760498082594e-14 1.0017364191125816e-14 2.407897001231827e-19
5.8489554468988025 6.873204732896295e-23 1.0671046853309266e-14 1.067080231473364e-14 2.445385756265729e-19
5.870931020387893 7.298853968804127e-23 1.1374467795005782e-14 1.137421946050809e-14 2.483344976899288e-19
5.892989160043636 7.755849407433175e-23 1.2132057031713365e-14 1.2131804853751633e-14 2.521779617342291e-19
5.915130176081913 8.275598360196288e-23 1.299370924938815e-14 1.2993453089918258e-14 2.561594698910993e-19
5.95966208400165 9.728853447593028e-23 1.5390500031612827e-14 1.5390234970415886e-14 2.6506119693825154e-19
6.004529249263818 1.182356339518249e-22 1.8845027782480954e-14 1.8844752770299606e-14 2.750121813498139e-19
6.027089341400364 1.3279675785658031e-22 2.1245381516959878e-14 2.124510083692951e-14 2.8068003036191037e-19
6.049734195844842 1.500044414319344e-22 2.4088504864938795e-14 2.4088218188849877e-14 2.866760889272941e-19
6.095279466722835 1.9971097858250697e-22 3.231208595473444e-14 3.2311784839180996e-14 3.0111555344288986e-19
6.141167624020661 2.762091331395602e-22 4.502548707346345e-14 4.502516757330474e-14 3.1950015871728313e-19
6.164241091010745 3.25061134745234e-22 5.3188053424070597e-14 5.318772257116805e-14 3.308529025463279e-19
6.187401249150058 3.80711657655953e-22 6.25279066210708e-14 6.252756402761352e-14 3.4259345728570154e-19
6.1990139391386085 4.07884898918871e-22 6.711655748453079e-14 6.711620890131931e-14 3.485832114959361e-19
6.204828454712694 4.22198829261549e-22 6.953704588506072e-14 6.953669426764718e-14 3.5161741354923626e-19
6.210648424152782 4.326480748275404e-22 7.132489709812187e-14 7.132454284736532e-14 3.5425075655419217e-19
6.233982942956859 4.681494983994917e-22 7.746751146619353e-14 7.746714781456656e-14 3.636516269963364e-19
6.239830258556775 4.726881732613989e-22 7.829192026719425e-14 7.829155515146324e-14 3.651157310143678e-19
6.245683058788269 4.730825233394537e-22 7.843073402506718e-14 7.843036744010933e-14 3.665849578676359e-19
6.257405133728602 4.721090296992372e-22 7.841623996151869e-14 7.841587071012469e-14 3.692513939771171e-19
6.269149208991335 4.651290558472944e-22 7.740188002789572e-14 7.740150934551276e-14 3.7068238295195146e-19
6.280915325867298 4.476225705637208e-22 7.462843745763743e-14 7.462806687987191e-14 3.705777654807707e-19
6.304513850009849 4.044499636791441e-22 6.768397196977609e-14 6.76836029982007e-14 3.6897157539289216e-19
6.32820103803542 3.509359971177188e-22 5.894915970094087e-14 5.894879382997902e-14 3.6587096184062317e-19
6.3519772230701035 3.018600899604181e-22 5.0896048113660494e-14 5.0895684876716865e-14 3.6323694363200354e-19
6.375842739491607 2.6057416123644933e-22 4.409997854306254e-14 4.4099617458527417e-14 3.610845351181231e-19
6.399797922933955 2.274854773059318e-22 3.864464931909117e-14 3.8644288596508846e-14 3.607225823172275e-19
6.42384311029221 1.999762591703928e-22 3.4099090749810215e-14 3.4098730024965955e-14 3.607248442603181e-19
6.447978639727206 1.7993072478285207e-22 3.0796286589456973e-14 3.079592443860203e-14 3.621508549409062e-19
6.472204850670314 1.6323287799772692e-22 2.8043313399917614e-14 2.8042949524576364e-14 3.6387534124989424e-19
6.496522083828205 1.5238217026165372e-22 2.6277527953347463e-14 2.6277161178024048e-14 3.6677532341374137e-19
