Dust emission spectrum from A.P. Jones, M. Kohler, N. Ysard, M. Bocchio, and L. Verstraete (2017), A&A, 602A, 46J 
inside the DustPedia framework.

lambda    nu*dP/dnu     j_nu    j_nu(carb.) j_nu(sil)
 (um)   (erg s-1 H-1) (Jy cm2 sr-1 H-1)
0.9927057738263894 5.644334987269346e-23 1.4873143283281794e-15 1.487314280424219e-15 4.790396050625484e-23
1.0001793341362166 5.739358742169251e-23 1.523739343501019e-15 1.5237392858378976e-15 5.766312186067241e-23
1.0077091589558085 5.834679311068112e-23 1.560707904629488e-15 1.5607078353107768e-15 6.931871071613646e-23
1.0114953028030835 5.882445210908145e-23 1.5793965835016017e-15 1.5793965075370712e-15 7.596453077228741e-23
1.0152956718711033 5.930278551754973e-23 1.5982218397187323e-15 1.5982217564988227e-15 8.321990982599038e-23
1.0229392996569957 6.026092340669993e-23 1.636270419013915e-15 1.6362703192362308e-15 9.977768381031536e-23
1.0267826658714554 6.073963036759016e-23 1.655465391669624e-15 1.6554652824662657e-15 1.092033578171992e-22
1.0306404723013447 6.121890211790945e-23 1.67479695522231e-15 1.674796835742499e-15 1.1947981117901283e-22
1.03451277320114 6.169871828648425e-23 1.6942653637555972e-15 1.6942652330756256e-15 1.306799714291138e-22
1.0383996230291617 6.217905890805533e-23 1.7138708785372192e-15 1.7138707356545584e-15 1.4288266079184104e-22
1.0403485208654093 6.241941976332656e-23 1.7237251344958086e-15 1.723724985109502e-15 1.4938630664308677e-22
1.0423010764483396 6.265990443450141e-23 1.7336137684831776e-15 1.7336136123101359e-15 1.5617304157060563e-22
1.0462171883269815 6.314123574599274e-23 1.7534943106288448e-15 1.7534941399857526e-15 1.7064309263520096e-22
1.0471985131304309 6.326164227885101e-23 1.7584859875982493e-15 1.7584858131418516e-15 1.7445639758550432e-22
1.048180758391296 6.338207771602277e-23 1.7634862901877555e-15 1.7634861118365294e-15 1.7835122651463748e-22
1.0501480137395462 6.362303416207042e-23 1.7735127906069488e-15 1.7735126042148294e-15 1.8639211898289754e-22
1.0521189612883777 6.386410281953485e-23 1.7835738490133906e-15 1.7835736542339735e-15 1.9477941723369265e-22
1.0531058218030118 6.3984515072169e-23 1.7886127800167443e-15 1.7886125809090798e-15 1.9910766510389508e-22
1.0540936079674168 6.410441902517218e-23 1.7936453723614637e-15 1.793645168832615e-15 2.0352884856982782e-22
1.058054026499678 6.458427963058018e-23 1.8138613928833943e-15 1.8138611707119293e-15 2.2217146478262446e-22
1.0590464539527713 6.470430464207929e-23 1.818936834601912e-15 1.818936607520574e-15 2.270813375674954e-22
1.06003981227728 6.482435306899635e-23 1.8240208606209793e-15 1.824020628526052e-15 2.3209492758430595e-22
1.0620293250338977 6.506451912713156e-23 1.8342146852287935e-15 1.8342144427871677e-15 2.424416266437663e-22
1.0660195594769086 6.554512087560386e-23 1.8547055648274072e-15 1.8547053003534868e-15 2.644739200387995e-22
1.070024785945596 6.602606873620803e-23 1.875334358339589e-15 1.8753340699261947e-15 2.8841339453989626e-22
1.0740450607676866 6.650734707906149e-23 1.8961014041753472e-15 1.8961010897590263e-15 3.1441632114857726e-22
1.07808044048254 6.698894079455743e-23 1.9170070530197423e-15 1.917006710368743e-15 3.4265100050899054e-22
1.0861967418109137 6.79522626944217e-23 1.9592138912084152e-15 1.9592134846541716e-15 4.065542431415777e-22
1.0902777775684922 6.843224910366122e-23 1.980466073493297e-15 1.980465630865576e-15 4.426277212227185e-22
1.0943741465085532 6.891246593805752e-23 2.0018569889363156e-15 2.001856507191734e-15 4.817445817580542e-22
1.1026131145906286 6.987354264451831e-23 2.0450566819219227e-15 2.0450561118251004e-15 5.700968219602862e-22
1.1109141095355224 7.083540224691878e-23 2.088816455666282e-15 2.088815781889753e-15 6.737765291941896e-22
1.1192775983109025 7.179719041496443e-23 2.133117086190801e-15 2.133116290909455e-15 7.952813462826691e-22
1.1277040513999907 7.275528100383919e-23 2.1778556759834522e-15 2.1778547384955283e-15 9.374879239815216e-22
1.1361939428280308 7.3713826783331e-23 2.2231607200463396e-15 2.2231596163415535e-15 1.103704786481415e-21
1.1447477501889525 7.467277878035405e-23 2.2690368269991105e-15 2.2690355292669864e-15 1.2977321243994167e-21
1.1533659546722406 7.563246738557348e-23 2.3155002354019765e-15 2.3154987114708585e-15 1.5239311181980167e-21
1.1707974979042381 7.755697565641649e-23 2.4103054572157962e-15 2.4103033636512805e-15 2.093564516966707e-21
1.1884924949847024 7.948403421054372e-23 2.5075279252760385e-15 2.50752506352817e-15 2.861747867870297e-21
1.2064549276569216 8.142692813446606e-23 2.607645713165088e-15 2.6076418206395248e-15 3.892525563226909e-21
1.2246888378427687 8.337185587598938e-23 2.710283129152055e-15 2.7102778604640706e-15 5.268687984925538e-21
1.2431983285522175 8.531682981757083e-23 2.8154288740914187e-15 2.815421777208887e-15 7.096882531395323e-21
1.2619875648066055 8.726420508873034e-23 2.9232142394584944e-15 2.923204725670499e-15 9.51378799515161e-21
1.3004222497298317 9.115162268657354e-23 3.1464311207499183e-15 3.146414263859436e-15 1.685689048229183e-20
1.3400274889804893 9.504274913002516e-23 3.3806649454938083e-15 3.3806356244522e-15 2.932104160762145e-20
1.3808389325824078 9.894915118890713e-23 3.62680770368883e-15 3.626757612379822e-15 5.0091309008064646e-20
1.4228933163050095 1.0290317431264558e-22 3.8866062465369126e-15 3.88652215719159e-15 8.40893453225245e-20
1.466228494730424 1.0697764911106737e-22 4.163553391405991e-15 4.163414609768272e-15 1.387816377191156e-19
1.5108834753276823 1.1116033008377778e-22 4.458104374247375e-15 4.457879092200857e-15 2.252820465178076e-19
1.5568984535646726 1.154450580930319e-22 4.7709522168558966e-15 4.770592151536687e-15 3.6006531921046474e-19
1.6043148490894465 1.1985914315609989e-22 5.104229638371852e-15 5.103661957721535e-15 5.676806503151934e-19
1.6531753430134553 1.2443223942903765e-22 5.460359911305791e-15 5.4594780838340664e-15 8.818274717248973e-19
1.7035239163302658 1.292008761831639e-22 5.842290219928901e-15 5.840940257171106e-15 1.3499627577968324e-18
1.755405889504358 1.3426924088894566e-22 6.256385743688032e-15 6.254348067714306e-15 2.0376759737256634e-18
1.8088679632656115 1.3964020053840176e-22 6.704814455116377e-15 6.701780727637254e-15 3.033727479122952e-18
1.8639582606462262 1.4531637073881525e-22 7.189855447436154e-15 7.185398703134975e-15 4.456744301181275e-18
1.9207263702978936 1.5132317467509746e-22 7.715078974263333e-15 7.708616169486066e-15 6.462804777266969e-18
1.979223391128241 1.5769703850019093e-22 8.284909818994464e-15 8.275655320294993e-15 9.254498699471482e-18
2.039501978296691 1.644726408947412e-22 8.904042613351993e-15 8.890951797066256e-15 1.309081628573573e-17
2.1016163906111602 1.717382928459458e-22 9.580540727504924e-15 9.562241180846828e-15 1.829954665809621e-17
2.1656225393682647 1.7954322608562467e-22 1.0320986745904043e-14 1.0295698335349325e-14 2.5288410554717038e-17
2.231578038680979 1.8788046555406968e-22 1.1129179305348523e-14 1.1094621683658706e-14 3.4557621689817766e-17
2.299542257339062 1.9677099319701232e-22 1.201079917666417e-14 1.1964086111545763e-14 4.6713065118406027e-17
2.369576372248914 2.062584347418391e-22 1.2973341833053808e-14 1.2910861457975762e-14 6.248037507804782e-17
2.4417434235010123 2.1639334123918504e-22 1.4025338524127242e-14 1.3942622742904302e-14 8.271578122293657e-17
2.5161083711144245 2.272695467842385e-22 1.5178890275874537e-14 1.5070469958174897e-14 1.084203176996402e-16
2.5927381535095444 2.3903879670162983e-22 1.6451158460871204e-14 1.6310409717055215e-14 1.4074874381599369e-16
2.6717017477616296 2.5184394035102637e-22 1.78603067381593e-14 1.767929811951873e-14 1.8100861864056565e-16
2.753070231689431 2.6589314729373294e-22 1.9430942572633525e-14 1.9200279356823027e-14 2.3066321581050025e-16
2.836916847834745 2.817147556423901e-22 2.1214149963715216e-14 2.0922810474025148e-14 2.9133948969007056e-16
2.9233170693905177 3.0046219841661138e-22 2.331498798880203e-14 2.2950237796917353e-14 3.6475019188467565e-16
2.967498994190263 3.1203083109653734e-22 2.457862147929566e-14 2.4172582434167716e-14 4.060390451279466e-16
3.0123486681368425 3.2451692253414952e-22 2.594848581206119e-14 2.5497079782483928e-14 4.514060295772699e-16
3.0578761833420214 3.4463061291870725e-22 2.7973266435901453e-14 2.7471937607485675e-14 5.013288284157756e-16
3.1040917844459814 3.682983362198435e-22 3.0346160073501795e-14 2.97904822205717e-14 5.556778529300894e-16
3.127460860933648 3.8977691481668447e-22 3.2357684052105097e-14 3.177289770315911e-14 5.847863489459843e-16
3.1510058709225794 4.170141383747944e-22 3.487943367769474e-14 3.4264299496420196e-14 6.151341812745461e-16
3.162844764501044 4.412743266160936e-22 3.704724955158314e-14 3.64164078694476e-14 6.308416821355268e-16
3.1747281389236908 4.688035023156284e-22 3.950634226248515e-14 3.885947200968207e-14 6.468702528030914e-16
3.1986289994194426 5.433657968387372e-22 4.613447691772768e-14 4.545448668494725e-14 6.799902327804355e-16
3.2227097969389145 7.148898190561322e-22 6.115468655637864e-14 6.043959453143944e-14 7.15092024939191e-16
3.2348180950136065 8.755908622512288e-22 7.518314995711809e-14 7.444932393881121e-14 7.338260183068673e-16
3.240889293275058 9.954915476593187e-22 8.563892479765357e-14 8.48952170396386e-14 7.437077580149635e-16
3.2469718861334385 1.1343529271432977e-21 9.776787085547923e-14 9.701393834201349e-14 7.53932513465704e-16
3.2714166318528037 1.865259462163773e-21 1.6197371459630626e-13 1.6117752261630222e-13 7.961919800040534e-16
3.2744851364798273 1.911087540883207e-21 1.6610895177589335e-13 1.65307777867836e-13 8.011739080573371e-16
3.2775565192852394 1.9581576852503317e-21 1.7035986374725305e-13 1.6955368285075443e-13 8.061808964986646e-16
3.283707930232385 1.9137131129622824e-21 1.6680566178706608e-13 1.6599052315743066e-13 8.151386296354006e-16
3.2898708863219004 1.7713379080381916e-21 1.5468553512311238e-13 1.538622411170164e-13 8.232940060959461e-16
3.29141343181113 1.737708255617172e-21 1.518199117175063e-13 1.5099456976826356e-13 8.253419492427546e-16
3.292184975758714 1.7211757605855956e-21 1.504107521258702e-13 1.4958438483845847e-13 8.263672874116974e-16
3.295272960557952 1.617677802532508e-21 1.4149883168669198e-13 1.406684753979679e-13 8.303562887240479e-16
3.3076538914384823 1.2570314219216056e-21 1.1036608220276305e-13 1.0951970249343867e-13 8.463797093243416e-16
3.310756385682612 1.1830496997473056e-21 1.0396799004643283e-13 1.0311757116206247e-13 8.504188843703597e-16
3.313861789986515 1.1145638316154684e-21 9.804123432892454e-14 9.718676291555895e-14 8.544714133655749e-16
3.3200813396944477 1.0189691599832145e-21 8.980059137523313e-14 8.893740494822426e-14 8.631864270089096e-16
3.345076488085796 8.52310024828716e-22 7.567859879435144e-14 7.477657903891038e-14 9.020197554410544e-16
3.3482140837626964 8.59289604655032e-22 7.636989786936311e-14 7.546261772435646e-14 9.072801450066394e-16
3.3513546224236106 8.663343724895776e-22 7.706822626318949e-14 7.615566184575235e-14 9.125644174371305e-16
3.3576445397418455 9.149637385576853e-22 8.154700832540638e-14 8.062339636736336e-14 9.23611958043028e-16
3.3702598118196083 1.0910251795408992e-21 9.760399375621519e-14 9.665720881810145e-14 9.467849381137475e-16
3.382922481734668 1.133478009438242e-21 1.017828431549774e-13 1.0081352503690643e-13 9.693181180709812e-16
3.389271646505754 1.1553780160705024e-21 1.0394411627991266e-13 1.029633750771971e-13 9.807412027155707e-16
3.395632727569191 1.1793374883726014e-21 1.0629877207302641e-13 1.0530625863348603e-13 9.925134395403854e-16
3.421196662673239 1.2949991161762295e-21 1.176026057928704e-13 1.1656135044602673e-13 1.04125534684365e-15
3.4276182099114902 1.2745929617221877e-21 1.1596672446342235e-13 1.1491458121139227e-13 1.0521432520301008e-15
3.4340518103208963 1.1807142523243762e-21 1.076269620675921e-13 1.0656451573697962e-13 1.0624463306124852e-15
3.4469541582030403 1.04646014266921e-21 9.574754171018992e-14 9.466530974497571e-14 1.082231965214196e-15
3.472904465399547 1.0109733501002305e-21 9.319700954511365e-14 9.20692153564391e-14 1.1277941886745172e-15
3.4990501388274233 9.560776255266018e-22 8.879995659462975e-14 8.762551526088869e-14 1.174441333741073e-15
3.5253949054701885 7.556664970885307e-22 7.071432066590907e-14 6.949452535716082e-14 1.2197953087482401e-15
3.5519380250092896 5.653346527714576e-22 5.330162129993109e-14 5.203621184913425e-14 1.26540945079684e-15
3.578680990867387 4.921927997852092e-22 4.6754958480713484e-14 4.543955054066743e-14 1.3154079400460505e-15
3.605625307711299 4.651599245205384e-22 4.4519709087719235e-14 4.315162635559834e-14 1.3680827321208904e-15
3.660119384959845 4.507123776302564e-22 4.378891348686879e-14 4.23100908196803e-14 1.478822667188491e-15
3.715437065384467 4.424545257703868e-22 4.363630655809227e-14 4.204063602776757e-14 1.595670530324693e-15
3.8285932144167436 4.502876678566494e-22 4.576133770202836e-14 4.3914167584464463e-14 1.847170117563889e-15
3.94519561050918 4.646581089951939e-22 4.865993169358693e-14 4.653796999948921e-14 2.121961694097731e-15
4.06534921144712 4.8162361773493275e-22 5.197267447318667e-14 4.955283045098736e-14 2.4198440221992992e-15
4.189162171576248 4.9999041683403e-22 5.559788701644542e-14 5.285641255956746e-14 2.7414744568779543e-15
4.316745939156006 5.192296571007576e-22 5.949567724410128e-14 5.6409906896348386e-14 3.0857703477528792e-15
4.448215356677963 5.390670892369136e-22 6.364994848938957e-14 6.020186169801139e-14 3.448086791378176e-15
4.58368876423945 5.594231366980468e-22 6.806517698498491e-14 6.423623614529246e-14 3.8289408396924524e-15
4.723288106065518 5.8034314528512955e-22 7.276101172676315e-14 6.853023971832807e-14 4.230772008435084e-15
4.867139040275056 6.018892316154367e-22 7.776062802586024e-14 7.31174803896946e-14 4.6431476361656344e-15
4.940699165968905 6.132224228471306e-22 8.042218544278884e-14 7.556764094058148e-14 4.854544502207353e-15
5.015371051989984 6.244537049038803e-22 8.313286515502629e-14 7.80640881370441e-14 5.068777017982193e-15
5.091171501069577 6.3664686188657915e-22 8.603709984732205e-14 8.074668172560723e-14 5.290418121714861e-15
5.129500256944802 6.426948259215689e-22 8.750830917768237e-14 8.210621469151841e-14 5.402094486163958e-15
5.168117569889187 6.488061530637387e-22 8.900548639925633e-14 8.349008878259744e-14 5.515397616658913e-15
5.20702561229733 6.557263905701688e-22 9.063205132030428e-14 8.499308322633267e-14 5.6389680939715894e-15
5.246226572918644 6.626426177910429e-22 9.227750424061678e-14 8.651406733696447e-14 5.763436903652274e-15
5.265937586045735 6.66099304253588e-22 9.310738310586799e-14 8.728138982704136e-14 5.825993278826655e-15
5.285722656980489 6.695550959248239e-22 9.394206980866489e-14 8.805331358728254e-14 5.888756221382361e-15
5.305582063971359 6.730100454262195e-22 9.478159570103836e-14 8.882987610831014e-14 5.951719592728226e-15
5.3255160863122235 6.766175777751047e-22 9.564767330804633e-14 8.96323032031648e-14 6.015370104881513e-15
5.365609099470188 6.850236787471451e-22 9.756499948898349e-14 9.14179392889894e-14 6.147060199994101e-15
5.406003951863644 6.935013420320041e-22 9.951604268840444e-14 9.323636747954071e-14 6.279675208863698e-15
5.446702915881641 7.02055845747451e-22 1.0150204232323947e-13 9.508887597422375e-14 6.413166349015759e-15
5.487708281020852 7.109865574421987e-22 1.0356710568675787e-13 9.70190572369421e-14 6.548048449815776e-15
5.529022354014368 7.226294967798761e-22 1.060555654428783e-13 9.9366894316799e-14 6.688671126079295e-15
5.570647458961463 7.345814803305001e-22 1.0862132168768263e-13 1.0179105839026382e-13 6.830263297418809e-15
5.612585937458331 7.468684520920342e-22 1.1126960644138339e-13 1.042968310062298e-13 6.972775435153579e-15
5.654840148729818 7.599644106141534e-22 1.1407304130260284e-13 1.069561860334474e-13 7.116855269155466e-15
5.67608639626678 7.686398693280271e-22 1.158087403647124e-13 1.0861649469482137e-13 7.192245669890987e-15
5.686739436050992 7.730592080059592e-22 1.166931921186094e-13 1.0946315000763713e-13 7.230042110972304e-15
5.6974124697621304 7.775347807126973e-22 1.1758906031743634e-13 1.1032115530419834e-13 7.26790501323798e-15
5.718818669136295 7.866603260886044e-22 1.194161339915875e-13 1.1207230691216684e-13 7.343827079420678e-15
5.740305295436557 7.965866701191917e-22 1.2137729610185423e-13 1.1395672409135548e-13 7.42057201049875e-15
5.7835210386641895 8.218895170103139e-22 1.2617554635855077e-13 1.1859631413688079e-13 7.57923222166995e-15
5.827062130521658 8.502261909896093e-22 1.3150842029057945e-13 1.2376797318730437e-13 7.74044710327506e-15
5.8489554468988025 8.700180059517273e-22 1.3507531443518345e-13 1.272477762092729e-13 7.827538225910565e-15
5.870931020387893 8.909139845756301e-22 1.3883922693874805e-13 1.3092418308054365e-13 7.915043858204427e-15
5.892989160043636 9.130013439808046e-22 1.428158773246721e-13 1.3481291902777267e-13 8.002958296899426e-15
5.915130176081913 9.379020885294456e-22 1.4726218591469275e-13 1.3916808411721445e-13 8.094101797478264e-15
5.95966208400165 1.0073022350753698e-21 1.5934955916728956e-13 1.5104750150225912e-13 8.302057665030476e-15
6.004529249263818 1.1060113711034456e-21 1.7628200838908425e-13 1.6774577759594174e-13 8.536230793142488e-15
6.027089341400364 1.174320122714418e-21 1.878726516580743e-13 1.7920097766964376e-13 8.671673988430518e-15
6.049734195844842 1.254195609212243e-21 2.0140535003960376e-13 1.9259017352866124e-13 8.815176510942551e-15
6.095279466722835 1.4839715930621538e-21 2.400980557490922e-13 2.3092966591680004e-13 9.168389832292248e-15
6.141167624020661 1.83385882854052e-21 2.989415521509482e-13 2.89314136000471e-13 9.627416150477264e-15
6.164241091010745 2.056857349917279e-21 3.3655281090073936e-13 3.2663700448600357e-13 9.915806414735831e-15
6.187401249150058 2.3077444965822524e-21 3.790228890705176e-13 3.68810964197343e-13 1.0211924873174579e-14
6.1990139391386085 2.4297872471676045e-21 3.998161145018047e-13 3.8945351811074825e-13 1.0362596391056377e-14
6.204828454712694 2.493807152462099e-21 4.1073534640670977e-13 4.0029664894627404e-13 1.0438697460435756e-14
6.210648424152782 2.5402837567823035e-21 4.187825812578764e-13 4.0827911138354926e-13 1.0503469874327116e-14
6.233982942956859 2.6965167654957212e-21 4.4620883748457247e-13 4.3547981734183757e-13 1.0729020142734855e-14
6.239830258556775 2.715564886172972e-21 4.497823334180908e-13 4.390222226647072e-13 1.0760110753383559e-14
6.245683058788269 2.715845329917274e-21 4.5025071148342384e-13 4.394594610812951e-13 1.0791250402128733e-14
6.257405133728602 2.7083883313721887e-21 4.4985716421725517e-13 4.3901153024049396e-13 1.084563397676125e-14
6.269149208991335 2.6737245623142094e-21 4.449330894258865e-13 4.3406805714168073e-13 1.0865032284205825e-14
6.280915325867298 2.591534984427343e-21 4.3206535868164816e-13 4.212241863628667e-13 1.0841172318781383e-14
6.304513850009849 2.3908288163309674e-21 4.001008903970451e-13 3.893465743989428e-13 1.0754315998102143e-14
6.32820103803542 2.1453947312280382e-21 3.6037687119995164e-13 3.4975105135167714e-13 1.0625819848274482e-14
6.3519772230701035 1.921335811579784e-21 3.239527289662118e-13 3.1344215406029404e-13 1.0510574905917637e-14
6.375842739491607 1.732285657159281e-21 2.9317473362931915e-13 2.827658155367778e-13 1.0408918092541324e-14
6.399797922933955 1.5823360595448947e-21 2.688031906486478e-13 2.584465388300462e-13 1.0356651818601608e-14
6.42384311029221 1.4571590692069999e-21 2.48468490929522e-13 2.381542657717336e-13 1.0314225157788374e-14
6.447978639727206 1.3664690595470915e-21 2.338798602863657e-13 2.2356954145715002e-13 1.03103188292157e-14
6.472204850670314 1.2906530066924758e-21 2.2173343508485518e-13 2.1141937941251585e-13 1.0314055672339368e-14
6.496522083828205 1.2415229199729212e-21 2.1409429448531563e-13 2.0374528611219752e-13 1.0349008373118113e-14
6.520930681187647 1.2000007534436742e-21 2.077114968178215e-13 1.9732280762787834e-13 1.0388689189943192e-14
6.57002334288761 1.1569204585449472e-21 2.01762219468327e-13 1.9125094142025515e-13 1.0511278048071837e-14
