Dust emission spectrum from A.P. Jones, M. Kohler, N. Ysard, M. Bocchio, and L. Verstraete (2017), A&A, 602A, 46J 
inside the DustPedia framework.

lambda    nu*dP/dnu     j_nu    j_nu(carb.) j_nu(sil)
 (um)   (erg s-1 H-1) (Jy cm2 sr-1 H-1)
0.9927057738263894 2.4117569588691744e-21 6.355116571680807e-14 6.355116456279638e-14 1.15401170073079e-21
1.0001793341362166 2.452305404057374e-21 6.510612760599224e-14 6.510612621724705e-14 1.3887452078796643e-21
1.0077091589558085 2.4930148035558946e-21 6.668520586705119e-14 6.668520419805268e-14 1.6689985074318201e-21
1.0114953028030835 2.5134279912797992e-21 6.748383435757931e-14 6.748383252882563e-14 1.8287536855211605e-21
1.0152956718711033 2.533879205295422e-21 6.82885474901317e-14 6.828854548700037e-14 2.0031313260512982e-21
1.0229392996569957 2.574872975385071e-21 6.991576371815942e-14 6.99157613171811e-14 2.4009783208842423e-21
1.0267826658714554 2.595368960469725e-21 7.073707012487477e-14 7.073706749747733e-14 2.627397433957204e-21
1.0306404723013447 2.615899221344581e-21 7.156449886406301e-14 7.156449598985422e-14 2.8742088020814295e-21
1.03451277320114 2.6364631243386653e-21 7.239807046955108e-14 7.239806732639535e-14 3.143155744516941e-21
1.0383996230291617 2.657060054971007e-21 7.323780595446352e-14 7.323780251834147e-14 3.4361220372860145e-21
1.0403485208654093 2.667370718991801e-21 7.365999185474148e-14 7.365998826249936e-14 3.592242112806288e-21
1.0423010764483396 2.6776894184311116e-21 7.408372683310211e-14 7.408372307795964e-14 3.7551424842331966e-21
1.0462171883269815 2.6983506400557045e-21 7.493585514312122e-14 7.4935851040707e-14 4.1024142226467815e-21
1.0471985131304309 2.703520857913317e-21 7.514985976596294e-14 7.514985557204263e-14 4.193920325049096e-21
1.048180758391296 2.708693023722842e-21 7.53642541202922e-14 7.536424983291392e-14 4.287378277232386e-21
1.0501480137395462 2.7190431658014635e-21 7.57942134679919e-14 7.57942089876831e-14 4.480308809793019e-21
1.0521189612883777 2.7294010003348807e-21 7.622573609817037e-14 7.622573141663872e-14 4.681531637048514e-21
1.0531058218030118 2.734575920967023e-21 7.644189277125788e-14 7.644188798589302e-14 4.78536487083389e-21
1.0540936079674168 2.7397302629284314e-21 7.665781208765955e-14 7.665780719623685e-14 4.891422698259832e-21
1.058054026499678 2.760365556246861e-21 7.752537523621362e-14 7.752536989763593e-14 5.33857770188516e-21
1.0590464539527713 2.765528823219295e-21 7.774323936456424e-14 7.77432339082342e-14 5.456330006888025e-21
1.06003981227728 2.770693852867243e-21 7.79614935862932e-14 7.796148800972929e-14 5.576563889108651e-21
1.0620293250338977 2.7810291713380977e-21 7.839917384390397e-14 7.839916801922793e-14 5.824676017274925e-21
1.0660195594769086 2.801720648057724e-21 7.927923249857973e-14 7.927922614565112e-14 6.352928599554166e-21
1.070024785945596 2.8224395494096424e-21 8.016557645573971e-14 8.016556952894454e-14 6.926795175808313e-21
1.0740450607676866 2.84318546198641e-21 8.1058231662658e-14 8.105822411265581e-14 7.550002184044455e-21
1.07808044048254 2.863957996403685e-21 8.195722478275417e-14 8.195721655619226e-14 8.226561900724009e-21
1.0861967418109137 2.9055496931292005e-21 8.377341820057436e-14 8.377340844323186e-14 9.75734251083688e-21
1.0902777775684922 2.926295893071626e-21 8.468857611931186e-14 8.468856549810165e-14 1.0621210195626399e-20
1.0943741465085532 2.947066158244619e-21 8.561012736131936e-14 8.561011580355247e-14 1.1557766884284398e-20
1.1026131145906286 2.9886778831837245e-21 8.747253171650427e-14 8.747251804402631e-14 1.367247797258398e-20
1.1109141095355224 3.030383135015275e-21 8.936088394512959e-14 8.93608677921145e-14 1.6153015108454364e-20
1.1192775983109025 3.0721479500705075e-21 9.127448087767474e-14 9.127446181888539e-14 1.905878936567959e-20
1.1277040513999907 3.113821318682845e-21 9.320908859569747e-14 9.32090661375074e-14 2.245819008927244e-20
1.1361939428280308 3.1555808405594644e-21 9.517025068150454e-14 9.517022425167136e-14 2.642983319106614e-20
1.1447477501889525 3.197426653171371e-21 9.715828105198516e-14 9.715824998801752e-14 3.106396768045478e-20
1.1533659546722406 3.2393742746949365e-21 9.917396793856243e-14 9.917393147445385e-14 3.6464108602459675e-20
1.1707974979042381 3.323701783482668e-21 1.0329356552499044e-13 1.0329351547111673e-13 5.0053873717149064e-20
1.1884924949847024 3.408448816255338e-21 1.0752826870859265e-13 1.0752820034471709e-13 6.83638755678175e-20
1.2064549276569216 3.494187389691328e-21 1.1189913430944445e-13 1.1189904139911264e-13 9.29103318187482e-20
1.2246888378427687 3.5803611854282024e-21 1.1639170575224712e-13 1.1639158010124457e-13 1.2565100253749154e-19
1.2431983285522175 3.666899033251945e-21 1.21006528708e-13 1.2100635960317263e-13 1.6910482737449676e-19
1.2619875648066055 3.7539259145552836e-21 1.2575064055350483e-13 1.2575041405720964e-13 2.264962951740496e-19
1.3004222497298317 3.928904505132741e-21 1.356204864055055e-13 1.3562008580877275e-13 4.005967327313526e-19
1.3400274889804893 4.105803238893119e-21 1.460431775161682e-13 1.46042481993266e-13 6.955229021845556e-19
1.3808389325824078 4.2852412966927454e-21 1.5706800877290497e-13 1.5706682279260158e-13 1.18598030345774e-18
1.4228933163050095 4.468682863740296e-21 1.6878012605555916e-13 1.6877813895017118e-13 1.98710538798458e-18
1.466228494730424 4.659263233454434e-21 1.8133779717819138e-13 1.8133452407933332e-13 3.2730988579686517e-18
1.5108834753276823 4.8565088862200966e-21 1.9477113366712357e-13 1.9476583113109834e-13 5.302536025202522e-18
1.5568984535646726 5.060129479165937e-21 2.091179679319833e-13 2.091095102153729e-13 8.45771661046602e-18
1.6043148490894465 5.271164174765006e-21 2.2447375895653708e-13 2.2446045195378512e-13 1.3307002751968918e-17
1.6531753430134553 5.490671736550104e-21 2.4094273296026154e-13 2.4092210534842554e-13 2.0627611836038576e-17
1.7035239163302658 5.7198667773307504e-21 2.586446990121128e-13 2.586131881390542e-13 3.151087305853356e-17
1.755405889504358 5.96270495550099e-21 2.778371429705885e-13 2.777896826043892e-13 4.7460366199272016e-17
1.8088679632656115 6.2187280086085636e-21 2.9859179007043413e-13 2.985212861045032e-13 7.050396593090274e-17
1.8639582606462262 6.487264987274678e-21 3.209720781669651e-13 3.208687356071206e-13 1.0334255984453277e-16
1.9207263702978936 6.768450764516099e-21 3.45083509474165e-13 3.449339926456066e-13 1.4951682855828838e-16
1.979223391128241 7.062702051998e-21 3.7105230469600565e-13 3.708386993488104e-13 2.136053471953717e-16
2.039501978296691 7.370137030171329e-21 3.9899653721062884e-13 3.986950990820208e-13 3.0143812860807176e-16
2.1016163906111602 7.692983655068489e-21 4.2915847131150304e-13 4.2873810734614893e-13 4.2036396535417e-16
2.1656225393682647 8.031586800125557e-21 4.616932797739826e-13 4.611137961854147e-13 5.794835885678603e-16
2.231578038680979 8.38365557764771e-21 4.966094047232127e-13 4.958194940332283e-13 7.899106899843034e-16
2.299542257339062 8.747970769705703e-21 5.339715900761068e-13 5.329065489456237e-13 1.0650411304830951e-15
2.369576372248914 9.124034185712621e-21 5.738878729292888e-13 5.724670368116103e-13 1.4208361176784269e-15
2.4417434235010123 9.511508614419395e-21 6.164798206287305e-13 6.146037955163859e-13 1.8760251123446006e-15
2.5161083711144245 9.911688330363224e-21 6.619823541870297e-13 6.595299759245074e-13 2.452378262522372e-15
2.5927381535095444 1.0328062709333164e-20 7.10799245016013e-13 7.076243942593795e-13 3.1748507566334834e-15
2.6717017477616296 1.0763355243243353e-20 7.633172587283893e-13 7.592457575036549e-13 4.071501224734578e-15
2.753070231689431 1.1222628419076355e-20 8.201273727606796e-13 8.149538834323198e-13 5.173489328359743e-15
2.836916847834745 1.1723162764244775e-20 8.827969708673264e-13 8.762817858011215e-13 6.515185066204666e-15
2.9233170693905177 1.2305534348746908e-20 9.548734817516502e-13 9.467412031060631e-13 8.132278645587086e-15
2.967498994190263 1.2668685523169678e-20 9.979104469259468e-13 9.88872366413523e-13 9.038080512424074e-15
3.0123486681368425 1.3057470560872245e-20 1.0440798801626295e-12 1.0340481775581332e-12 1.0031702604496438e-14
3.0578761833420214 1.3722825702693546e-20 1.1138658181983164e-12 1.1027423742742463e-12 1.1123443924070231e-14
3.1040917844459814 1.4507927733937552e-20 1.19538931907112e-12 1.1830798319124078e-12 1.2309487158712097e-14
3.127460860933648 1.5256184041208755e-20 1.2665059532280692e-12 1.2535622243516304e-12 1.2943728876439166e-14
3.1510058709225794 1.621311179308466e-20 1.35607910009923e-12 1.3424748430786797e-12 1.360425702055025e-14
3.162844764501044 1.7088180187581454e-20 1.4346406251332096e-12 1.420694765588232e-12 1.3945859544977579e-14
3.1747281389236908 1.8080040888828933e-20 1.5236155019014893e-12 1.5093212501952067e-12 1.4294251706282362e-14
3.1986289994194426 2.0774523237385883e-20 1.7638610459988558e-12 1.748847497380914e-12 1.5013548617941186e-14
3.2227097969389145 2.70452067095721e-20 2.3135609083929124e-12 2.2977857561524285e-12 1.5775152240484227e-14
3.2348180950136065 3.293912639007421e-20 2.8283384233524076e-12 2.81215698389761e-12 1.618143945479683e-14
3.240889293275058 3.734501211645303e-20 3.212670857656422e-12 3.1962751116237946e-12 1.6395746032627284e-14
3.2469718861334385 4.2452158382274544e-20 3.658876385770775e-12 3.642258896157297e-12 1.6617489613477395e-14
3.2714166318528037 6.926071322893762e-20 6.014399189411834e-12 5.996865823435909e-12 1.7533365975925062e-14
3.2744851364798273 7.09345508394545e-20 6.165528073711456e-12 6.1478869074000816e-12 1.764116631137703e-14
3.2775565192852394 7.265322871870419e-20 6.320836283281318e-12 6.303086790099189e-12 1.774949318212948e-14
3.283707930232385 7.099335540627492e-20 6.188019275625598e-12 6.170076328552631e-12 1.794294707296699e-14
3.2898708863219004 6.573066989804689e-20 5.740058856664415e-12 5.721940103563046e-12 1.8118753101369314e-14
3.29141343181113 6.44868499168186e-20 5.634080306440324e-12 5.615917413868589e-12 1.816289257173461e-14
3.292184975758714 6.387526918006345e-20 5.581955951056962e-12 5.5637709605274715e-12 1.8184990529491277e-14
3.295272960557952 6.006305201754278e-20 5.253735740648838e-12 5.235464840053021e-12 1.8270900595816784e-14
3.3076538914384823 4.6755229377096487e-20 4.105061654666804e-12 4.08644582211661e-12 1.8615832550193512e-14
3.310756385682612 4.401811492227641e-20 3.8683708174555006e-12 3.849668067562433e-12 1.8702749893068565e-14
3.313861789986515 4.148149417687981e-20 3.64886853094341e-12 3.630078589614876e-12 1.8789941328533855e-14
3.3200813396944477 3.7936803761363645e-20 3.343327302185224e-12 3.3243497055584973e-12 1.8977596626726376e-14
3.345076488085796 3.173045372095105e-20 2.8174211340447028e-12 2.797606964383632e-12 1.9814169661070143e-14
3.3482140837626964 3.197805055545646e-20 2.8420691251838927e-12 2.82214161585587e-12 1.9927509328023618e-14
3.3513546224236106 3.222791418205401e-20 2.8669625274542283e-12 2.846921181312409e-12 2.0041346141819324e-14
3.3576445397418455 3.3998722486650684e-20 3.030168288464131e-12 3.0098888924592596e-12 2.0279396004871984e-14
3.3702598118196083 4.0424945800839744e-20 3.616448301588066e-12 3.5956696095498498e-12 2.0778692038217177e-14
3.382922481734668 4.194874912615251e-20 3.76686880318988e-12 3.745605187921548e-12 2.1263615268332417e-14
3.389271646505754 4.273441032227262e-20 3.844620941290916e-12 3.823111611085054e-12 2.150933020586147e-14
3.395632727569191 4.3599109077393044e-20 3.929775661418286e-12 3.908013107146752e-12 2.176255427153385e-14
3.421196662673239 4.7798427964940963e-20 4.340713141239629e-12 4.317902775018212e-12 2.2810366221417204e-14
3.4276182099114902 4.7028568820317205e-20 4.278816254348288e-12 4.255772471337342e-12 2.3043783010945593e-14
3.4340518103208963 4.355586406394345e-20 3.970296217059104e-12 3.947031866664066e-12 2.3264350395038635e-14
3.4469541582030403 3.8569980740508374e-20 3.529021975259704e-12 3.5053346882996925e-12 2.368728696001082e-14
3.472904465399547 3.716612243593693e-20 3.426174851269294e-12 3.4015126815484477e-12 2.4662169720846583e-14
3.4990501388274233 3.505506752015391e-20 3.255895118868534e-12 3.2302362757828595e-12 2.565884308567479e-14
3.5253949054701885 2.763028061759047e-20 2.5856069194668004e-12 2.5589813154902418e-12 2.6625603976559234e-14
3.5519380250092896 2.0562251410423512e-20 1.9386770868889905e-12 1.9110810158713016e-12 2.7596071017689036e-14
3.578680990867387 1.779413027592574e-20 1.6903209933472816e-12 1.6616614301957466e-12 2.865956315153502e-14
3.605625307711299 1.6718119694808193e-20 1.6000643780173015e-12 1.5702855074367364e-12 2.977887058056538e-14
3.660119384959845 1.6014061202424155e-20 1.5558444262243817e-12 1.5237174250444897e-12 3.2127001179892644e-14
3.715437065384467 1.552642939002838e-20 1.5312670413669832e-12 1.496669705655137e-12 3.459733571184637e-14
3.8285932144167436 1.542248712733727e-20 1.567339485441882e-12 1.527450622185075e-12 3.988886325680655e-14
3.94519561050918 1.55274023345452e-20 1.626060801159131e-12 1.5804286723802568e-12 4.563212877887419e-14
4.06534921144712 1.56982788065954e-20 1.6940231005314575e-12 1.6422093738208245e-12 5.181372671063267e-14
4.189162171576248 1.5893375508378168e-20 1.767310064500837e-12 1.7088718535383386e-12 5.843821096249837e-14
4.316745939156006 1.609560238525997e-20 1.8443067561084748e-12 1.7788340380388895e-12 6.547271806958551e-14
4.448215356677963 1.629793410393549e-20 1.9243665341681636e-12 1.8515563795267978e-12 7.281015464136595e-14
4.58368876423945 1.6499743845458952e-20 2.0075286690444107e-12 1.9270770783951974e-12 8.045159064921317e-14
4.723288106065518 1.670477988614933e-20 2.0943758792773197e-12 2.0059386096559215e-12 8.843726962139795e-14
4.867139040275056 1.6918741765721185e-20 2.185804157982362e-12 2.0892642411863186e-12 9.653991679604336e-14
4.940699165968905 1.7040934069268218e-20 2.2348647224510728e-12 2.1342066063949617e-12 1.006581160561106e-13
5.015371051989984 1.715703879040272e-20 2.2840985344808735e-12 2.179291922279722e-12 1.0480661220115135e-13
5.091171501069577 1.7303743764259025e-20 2.3384454068718225e-12 2.229367917874579e-12 1.0907748899724293e-13
5.129500256944802 1.7374592697717082e-20 2.3656970124941893e-12 2.2544779720733836e-12 1.1121904042080621e-13
5.168117569889187 1.7447042039442276e-20 2.3934459554921603e-12 2.2800592668112135e-12 1.1338668868094751e-13
5.20702561229733 1.754592647702322e-20 2.425132390271984e-12 2.30937108600032e-12 1.157613042716631e-13
5.246226572918644 1.7644089412197466e-20 2.4570597964003773e-12 2.3389139139679124e-12 1.1814588243246466e-13
5.265937586045735 1.769291891710741e-20 2.4731168000875527e-12 2.3537752491078156e-12 1.1934155097973723e-13
5.285722656980489 1.774159087246592e-20 2.4892376720034646e-12 2.3686983918000646e-12 1.2053928020340046e-13
5.305582063971359 1.77901134195711e-20 2.5054237289155836e-12 2.383684804326773e-12 1.2173892458881013e-13
5.3255160863122235 1.7843691193343357e-20 2.5224108890027195e-12 2.3994603180918267e-12 1.2295057091089345e-13
5.365609099470188 1.7990716129484797e-20 2.562340929863727e-12 2.4368829576524822e-12 1.2545797221124417e-13
5.406003951863644 1.8139473035017e-20 2.60297776441016e-12 2.475002739294329e-12 1.2797502511583192e-13
5.446702915881641 1.8290177750933063e-20 2.644362848653798e-12 2.5138622856299022e-12 1.3050056302389545e-13
5.487708281020852 1.8452950207848767e-20 2.6879814033110223e-12 2.5549364227238336e-12 1.3304498058718877e-13
5.529022354014368 1.8706189981719043e-20 2.745384134793273e-12 2.6096870050495893e-12 1.3569712974368363e-13
5.570647458961463 1.8968706010615786e-20 2.8048704912233365e-12 2.6665116267670794e-12 1.3835886445625719e-13
5.612585937458331 1.9241363914838956e-20 2.866607880146129e-12 2.7255788838640003e-12 1.4102899628212825e-13
5.654840148729818 1.9539970967027078e-20 2.933010920040349e-12 2.789290414512671e-12 1.4372050552767847e-13
5.67608639626678 1.9759733716523666e-20 2.9771417837761914e-12 2.832011504702262e-12 1.4513027907393065e-13
5.686739436050992 1.98721626145683e-20 2.9997004961309387e-12 2.853864318052222e-12 1.4583617807871573e-13
5.6974124697621304 1.9986348749071062e-20 3.0225991516747802e-12 2.876056424884654e-12 1.4654272679012621e-13
5.718818669136295 2.022017612922276e-20 3.069450920432967e-12 2.9214932228270334e-12 1.4795769760593306e-13
5.740305295436557 2.048014409436994e-20 3.1205951683562973e-12 2.971208845388929e-12 1.4938632296736872e-13
5.7835210386641895 2.117916631898639e-20 3.2514015891544563e-12 3.099063540771368e-12 1.523380483830895e-13
5.827062130521658 2.197566012397189e-20 3.3990770672242684e-12 3.2437479764662784e-12 1.5532909075798992e-13
5.8489554468988025 2.255819567628603e-20 3.502290013792883e-12 3.3453404785925563e-12 1.5694953520032727e-13
5.870931020387893 2.3176020009246797e-20 3.611729928264053e-12 3.4531549111534046e-12 1.5857501711064818e-13
5.892989160043636 2.3831928314399028e-20 3.7279000441768794e-12 3.567694657639668e-12 1.602053865372118e-13
5.915130176081913 2.4579003418929802e-20 3.85920643033377e-12 3.697309338915259e-12 1.6189709141850994e-13
5.95966208400165 2.6711074074328585e-20 4.225541977786438e-12 4.059758923528818e-12 1.6578305425762152e-13
6.004529249263818 2.9794245329652335e-20 4.74876619026819e-12 4.578592779939674e-12 1.70173410328517e-13
6.027089341400364 3.195073177887545e-20 5.111611889812616e-12 4.9388861507798556e-12 1.7272573903276247e-13
6.049734195844842 3.4481422043105405e-20 5.53720872999781e-12 5.3617760531078564e-12 1.7543267688995543e-13
6.095279466722835 4.181029149786873e-20 6.764664327722501e-12 6.582524860309015e-12 1.8213946741348524e-13
6.141167624020661 5.302109999784656e-20 8.643091651019455e-12 8.452181909934883e-12 1.9090974108457168e-13
6.164241091010745 6.016913810685233e-20 9.845161386690403e-12 9.648715530030508e-12 1.9644585665989454e-13
6.187401249150058 6.82152730942198e-20 1.1203644911816173e-11 1.1001520392339268e-11 2.021245194769053e-13
6.1990139391386085 7.212142555710558e-20 1.1867420973661927e-11 1.166240812488632e-11 2.050128487756063e-13
6.204828454712694 7.417096226878029e-20 1.2216115368307118e-11 1.2009644302194945e-11 2.0647106611217547e-13
6.210648424152782 7.564960877362342e-20 1.2471338427757175e-11 1.2263632024455187e-11 2.0770640330198961e-13
6.233982942956859 8.059588508203808e-20 1.33366855525132e-11 1.3124702105059466e-11 2.1198344745373236e-13
6.239830258556775 8.118323689484675e-20 1.3446478819534984e-11 1.3233924428648783e-11 2.1255439088620212e-13
6.245683058788269 8.116106663689484e-20 1.3455415739425998e-11 1.3242289723568813e-11 2.1312601585718428e-13
6.257405133728602 8.085727507677813e-20 1.343021015525686e-11 1.3216096791002703e-11 2.1411336425415102e-13
6.269149208991335 7.967330995834091e-20 1.3258393345449233e-11 1.3043980973486123e-11 2.1441237196310905e-13
6.280915325867298 7.695274270251066e-20 1.2829699223467696e-11 1.2615838178834315e-11 2.1386104463338356e-13
6.304513850009849 7.034797334688911e-20 1.1772606462436744e-11 1.1560616202781537e-11 2.1199025965520606e-13
6.32820103803542 6.230804192636398e-20 1.0466315066955265e-11 1.0257012737716587e-11 2.0930232923867468e-13
6.3519772230701035 5.497359747968965e-20 9.268992342360244e-12 9.062116696636163e-12 2.068756457240808e-13
6.375842739491607 4.879019529846266e-20 8.257328952204104e-12 8.052611367454494e-12 2.0471758474960857e-13
6.399797922933955 4.386787560697663e-20 7.452162174402334e-12 7.248635732824534e-12 2.0352644157780055e-13
6.42384311029221 3.975807675915394e-20 6.779376077303027e-12 6.576847513472132e-12 2.0252856383089544e-13
6.447978639727206 3.6759947471762634e-20 6.2916985340886905e-12 6.089415580395499e-12 2.0228295369319007e-13
6.472204850670314 3.424823545618933e-20 5.883826910810592e-12 5.681640838649646e-12 2.0218607216094627e-13
6.496522083828205 3.2593581908630485e-20 5.620596938822352e-12 5.417899789508148e-12 2.0269714931420705e-13
