Dust emission spectrum from A.P. Jones, M. Kohler, N. Ysard, M. Bocchio, and L. Verstraete (2017), A&A, 602A, 46J 
inside the DustPedia framework.

lambda    nu*dP/dnu     j_nu    j_nu(carb.) j_nu(sil)
 (um)   (erg s-1 H-1) (Jy cm2 sr-1 H-1)
0.9927057738263894 2.7512992979553425e-24 7.249829920792707e-17 7.249829920782581e-17 1.0125665865975489e-28
1.0001793341362166 2.796728265660889e-24 7.425019210174329e-17 7.425019210162132e-17 1.219767344669173e-28
1.0077091589558085 2.8420917928490444e-24 7.602260364794736e-17 7.602260364780063e-17 1.4674797204132246e-28
1.0114953028030835 2.8647434294105097e-24 7.691641524564424e-17 7.691641524548335e-17 1.6088281760326375e-28
1.0152956718711033 2.8873720193946655e-24 7.781524898899898e-17 7.781524898882264e-17 1.7632217791356361e-28
1.0229392996569957 2.9325290054179082e-24 7.962723093506597e-17 7.962723093485439e-17 2.1158534099755902e-28
1.0267826658714554 2.955002609836902e-24 8.053892529923363e-17 8.053892529900197e-17 2.3167502860294686e-28
1.0306404723013447 2.9774432316879844e-24 8.145544409100875e-17 8.145544409075519e-17 2.5359004628996852e-28
1.03451277320114 2.9998487055722767e-24 8.23767478403446e-17 8.237674784006709e-17 2.774881445614631e-28
1.0383996230291617 3.022216878143184e-24 8.330279658514161e-17 8.330279658483806e-17 3.0353995285604257e-28
1.0403485208654093 3.0333863069126413e-24 8.376758771046415e-17 8.376758771014671e-17 3.1743058254961113e-28
1.0423010764483396 3.0445456085192627e-24 8.423354988070826e-17 8.423354988037632e-17 3.319299646063179e-28
1.0462171883269815 3.066832768687992e-24 8.516896680923444e-17 8.516896680887157e-17 3.6285759213071703e-28
1.0471985131304309 3.0723978152661444e-24 8.540354489467925e-17 8.540354489430821e-17 3.710108812118055e-28
1.048180758391296 3.0779600985568296e-24 8.563841122200631e-17 8.563841122162698e-17 3.7933968384000724e-28
1.0501480137395462 3.0890762439003642e-24 8.610900598927181e-17 8.610900598887528e-17 3.965382958801266e-28
1.0521189612883777 3.1001809425106376e-24 8.658074586746275e-17 8.65807458670483e-17 4.1448306656351205e-28
1.0531058218030118 3.1057203863662293e-24 8.681680509647837e-17 8.681680509605464e-17 4.237454381695626e-28
1.0540936079674168 3.111228919662706e-24 8.705236610784772e-17 8.705236610741452e-17 4.332080225433735e-28
1.058054026499678 3.1332316523724012e-24 8.799738824535197e-17 8.799738824487884e-17 4.731233626626184e-28
1.0590464539527713 3.1387243245412456e-24 8.823433493567349e-17 8.823433493518984e-17 4.836396471253854e-28
1.06003981227728 3.1442137281565415e-24 8.84715567358486e-17 8.847155673535422e-17 4.943796776155648e-28
1.0620293250338977 3.1551826019014948e-24 8.894682294782152e-17 8.894682294730499e-17 5.165491859868098e-28
1.0660195594769086 3.177079724044102e-24 8.990062670367502e-17 8.990062670311123e-17 5.637784019628989e-28
1.070024785945596 3.198920990087692e-24 9.085875559686819e-17 9.085875559625306e-17 6.151269420375757e-28
1.0740450607676866 3.2207043871466662e-24 9.182116531641199e-17 9.182116531574104e-17 6.709354491350458e-28
1.07808044048254 3.242427918486769e-24 9.278781116587327e-17 9.27878111651417e-17 7.315710815503037e-28
1.0861967418109137 3.285649065802413e-24 9.473252304053865e-17 9.473252303966971e-17 8.689367294209325e-28
1.0902777775684922 3.307055418650665e-24 9.570796145949565e-17 9.570796145854911e-17 9.465519186291881e-28
1.0943741465085532 3.328392560193849e-24 9.668738185246117e-17 9.668738185143039e-17 1.0307685718100184e-27
1.1026131145906286 3.370851626264646e-24 9.865798099190419e-17 9.865798099068302e-17 1.221171710715233e-27
1.1109141095355224 3.4130112815312795e-24 1.0064394218284131e-16 1.0064394218139641e-16 1.444895793042013e-27
1.1192775983109025 3.454817673758333e-24 1.0264371860478614e-16 1.0264371860307871e-16 1.707427983755213e-27
1.1277040513999907 3.496076505145043e-24 1.0465151058932403e-16 1.0465151058730896e-16 2.015098956286646e-27
1.1361939428280308 3.5369872224658166e-24 1.0667321727041234e-16 1.0667321726803717e-16 2.3752018217938505e-27
1.1447477501889525 3.5775361876354146e-24 1.0870844091049731e-16 1.0870844090770117e-16 2.7961281224528532e-27
1.1533659546722406 3.617732195517864e-24 1.1075745694818847e-16 1.1075745694490095e-16 3.28752494202144e-27
1.1707974979042381 3.697195317742525e-24 1.1490094830703003e-16 1.1490094830250236e-16 4.5276677555016765e-27
1.1884924949847024 3.775075480763832e-24 1.1909444811225343e-16 1.190944481060486e-16 6.204838942248219e-27
1.2064549276569216 3.851982239194903e-24 1.2335728736613126e-16 1.2335728735766937e-16 8.461877713890411e-27
1.2246888378427687 3.927075113601737e-24 1.2766281037499302e-16 1.2766281036350888e-16 1.1484117132225662e-26
1.2431983285522175 4.000178417706585e-24 1.3200464483748334e-16 1.3200464482197214e-16 1.5511203881933703e-26
1.2619875648066055 4.071264887386447e-24 1.3638099928045307e-16 1.3638099925960166e-16 2.0851430436509661e-26
1.3004222497298317 4.2062052869841e-24 1.4519253552662242e-16 1.4519253548946624e-16 3.7156223419423404e-26
1.3400274889804893 4.331368805502132e-24 1.5406653133248408e-16 1.540665312674734e-16 6.501068907866168e-26
1.3808389325824078 4.446291940975326e-24 1.6297103785754046e-16 1.6297103774580386e-16 1.1173660984259328e-25
1.4228933163050095 4.5515354658252624e-24 1.7190943127822317e-16 1.7190943108947777e-16 1.8874539886196254e-25
1.466228494730424 4.649635257461579e-24 1.8096307785662715e-16 1.8096307754312298e-16 3.135041941613815e-25
1.5108834753276823 4.738683417334982e-24 1.9004572274185382e-16 1.9004572222959752e-16 5.122563052567239e-25
1.5568984535646726 4.817136559249788e-24 1.9907589571941615e-16 1.990758948951658e-16 8.242503234843058e-25
1.6043148490894465 4.885139215561014e-24 2.080347958033117e-16 2.0803479449487496e-16 1.3084367490187336e-24
1.6531753430134553 4.942899430535599e-24 2.1690528129974645e-16 2.1690527925295643e-16 2.0467900129052224e-24
1.7035239163302658 4.991105227499193e-24 2.2569107980286517e-16 2.2569107664694207e-16 3.1559230498934547e-24
1.755405889504358 5.0337268103035454e-24 2.3455064201674605e-16 2.3455063721796795e-16 4.798778134582787e-24
1.8088679632656115 5.069785083688726e-24 2.434253759475345e-16 2.4342536874904157e-16 7.1984929643503e-24
1.8639582606462262 5.098617256965504e-24 2.5226559728272696e-16 2.5226558662577104e-16 1.0656955910596761e-23
1.9207263702978936 5.1207056212553334e-24 2.610746725130694e-16 2.610746569365201e-16 1.557654934531661e-23
1.979223391128241 5.137171538021052e-24 2.6989094609508464e-16 2.698909236084003e-16 2.2486684331135436e-23
2.039501978296691 5.149356696711049e-24 2.787703244104146e-16 2.787702923364145e-16 3.207400001771665e-23
2.1016163906111602 5.161017506479986e-24 2.8791096963186485e-16 2.8791092441126493e-16 4.5220599969706547e-23
2.1656225393682647 5.1743322818994656e-24 2.974448887028418e-16 2.974448256612084e-16 6.304163343150075e-23
2.231578038680979 5.1894573418832564e-24 3.0739971334941735e-16 3.073996264203932e-16 8.692902416832974e-23
2.299542257339062 5.207696933930353e-24 3.1787511477233774e-16 3.1787499617236555e-16 1.1859997225627492e-22
2.369576372248914 5.23193431868302e-24 3.290807110473619e-16 3.290805508958613e-16 1.6015150050400932e-22
2.4417434235010123 5.2655739144212426e-24 3.412834066457797e-16 3.4128319253484533e-16 2.141109342967021e-22
2.5161083711144245 5.314445807088667e-24 3.549414821487856e-16 3.549411986490805e-16 2.8349970508998883e-22
2.5927381535095444 5.3880905291000135e-24 3.7081985150044614e-16 3.708194796113207e-16 3.7188912548597537e-22
2.6717017477616296 5.4978980521378875e-24 3.8990076747308564e-16 3.8990028403854933e-16 4.834345364383588e-22
2.753070231689431 5.66101666125242e-24 4.136958427364104e-16 4.1369521981034252e-16 6.229260678124892e-22
2.836916847834745 5.9162991894327475e-24 4.455189361616369e-16 4.455181403039806e-16 7.958576563814435e-22
2.9233170693905177 6.349317532519596e-24 4.926884739175239e-16 4.92687465619012e-16 1.0082985117719997e-21
2.967498994190263 6.71696209588781e-24 5.290940906878706e-16 5.290929610406011e-16 1.1296472695032372e-21
3.0123486681368425 7.146307893714465e-24 5.714212606868196e-16 5.714199967630214e-16 1.2639237978562277e-21
3.0578761833420214 8.106810381909981e-24 6.58020379669499e-16 6.580189669964325e-16 1.412673066396462e-21
3.1040917844459814 9.344496224051031e-24 7.699453142574563e-16 7.699437382489007e-16 1.5760085556565844e-21
3.127460860933648 1.0653718777456911e-23 8.844281256191366e-16 8.844264615729914e-16 1.6640461453096214e-21
3.1510058709225794 1.239806359485147e-23 1.0369850733929012e-15 1.036983317149127e-15 1.7562437738673762e-21
3.162844764501044 1.4021741680903308e-23 1.177197339314492e-15 1.17719553519116e-15 1.804123332348216e-21
3.1747281389236908 1.590994897055466e-23 1.3407406009228788e-15 1.3407387478292455e-15 1.8530936331444734e-21
3.1986289994194426 2.1176702554544575e-23 1.7980080838363364e-15 1.7980061292095733e-15 1.954626763233739e-21
3.2227097969389145 3.359161518126513e-23 2.8735682654496706e-15 2.8735662027719095e-15 2.0626777610126903e-21
3.2348180950136065 4.5364813274875515e-23 3.895277699052804e-15 3.895275578588725e-15 2.120464079458237e-21
3.240889293275058 5.416679176040336e-23 4.65979426646709e-15 4.6597921155161765e-15 2.1509509142949404e-21
3.2469718861334385 6.434931702149974e-23 5.54615372839914e-15 5.546151545898128e-15 2.182501011868626e-21
3.2714166318528037 1.1866449921814923e-22 1.0304480485936013e-14 1.0304478172670852e-14 2.313265161332987e-21
3.2744851364798273 1.220598739819687e-22 1.0609266863658314e-14 1.0609264534880671e-14 2.3287776448589258e-21
3.2775565192852394 1.255527712731661e-22 1.0923100406212795e-14 1.0923098061835105e-14 2.3443776867810964e-21
3.283707930232385 1.221935554433463e-22 1.0650800657519271e-14 1.0650798285041978e-14 2.3724772903909058e-21
3.2898708863219004 1.1154067266127698e-22 9.740506630782007e-15 9.740504232545669e-15 2.398236341998023e-21
3.29141343181113 1.0902845874019758e-22 9.525586891312569e-15 9.52558448660272e-15 2.404709853263664e-21
3.292184975758714 1.0779404604405306e-22 9.419946475809318e-15 9.419944067857632e-15 2.4079516831359563e-21
3.295272960557952 1.0000233840303159e-22 8.747238806030301e-15 8.747236385433609e-15 2.4205966899653936e-21
3.3076538914384823 7.300952438898404e-23 6.410162092830935e-15 6.4101596213442325e-15 2.4714867045411998e-21
3.310756385682612 6.75158062344768e-23 5.933379360192816e-15 5.933376875857468e-15 2.4843353467355683e-21
3.313861789986515 6.244699839294621e-23 5.493073280250739e-15 5.4930707830160675e-15 2.4972346725909714e-21
3.3200813396944477 5.533855450806528e-23 4.876923773391432e-15 4.876921248494996e-15 2.524896434706959e-21
3.345076488085796 4.2657732517694406e-23 3.787679753423201e-15 3.787677105441548e-15 2.647981652424653e-21
3.3482140837626964 4.313322186953193e-23 3.833491911350615e-15 3.833489246699667e-15 2.6646509471238643e-21
3.3513546224236106 4.361396791076693e-23 3.8798543078964694e-15 3.879851626489726e-15 2.681406742902539e-21
3.3576445397418455 4.712746356854814e-23 4.2002797510181194e-15 4.200277034608707e-15 2.7164094113329716e-21
3.3702598118196083 6.008676447190492e-23 5.375410480274009e-15 5.375407690411599e-15 2.7898624088538635e-21
3.382922481734668 6.303825631403734e-23 5.660641760800316e-15 5.6606388991691644e-15 2.861631152167622e-21
3.389271646505754 6.456733035017236e-23 5.808829664794585e-15 5.808826766708782e-15 2.8980858024000803e-21
3.395632727569191 6.621497851252178e-23 5.968241472960894e-15 5.968238537300624e-15 2.9356602697253462e-21
3.421196662673239 7.412634171331326e-23 6.73162694436316e-15 6.731623852714303e-15 3.091648856784019e-21
3.4276182099114902 7.253187901791867e-23 6.5991925904880345e-15 6.599189463617208e-15 3.1268708273597107e-21
3.4340518103208963 6.554525208439381e-23 5.974719408959719e-15 5.974716248576791e-15 3.1603829287765955e-21
3.4469541582030403 5.559500281058531e-23 5.086753554614158e-15 5.086750329500687e-15 3.225113470757147e-21
3.472904465399547 5.280621294886409e-23 4.867963267032383e-15 4.8679598933254916e-15 3.3737068920362277e-21
3.4990501388274233 4.8540989923215984e-23 4.508460069722661e-15 4.50845654296709e-15 3.526755572248793e-21
3.5253949054701885 3.3362505295814816e-23 3.122021297485077e-15 3.12201762050774e-15 3.6769773378704344e-21
3.5519380250092896 1.909659769449595e-23 1.800490405884687e-15 1.8004865766450203e-15 3.829239666552278e-21
3.578680990867387 1.3439974479051405e-23 1.2767058945683926e-15 1.276701898159016e-15 3.996409376624681e-21
3.605625307711299 1.115183506891867e-23 1.0673242188140468e-15 1.0673200454986007e-15 4.173315446125945e-21
3.660119384959845 9.48221879353477e-24 9.212439662668402e-16 9.2123941761681e-16 4.548650029847445e-21
3.715437065384467 8.299619874052675e-24 8.185355466964852e-16 8.185305969377218e-16 4.949758763305566e-21
3.8285932144167436 7.698096323236728e-24 7.823336294933279e-16 7.823277982725714e-16 5.831220756610101e-21
3.94519561050918 7.580925895929712e-24 7.938898065672185e-16 7.938829840262316e-16 6.822540986670672e-21
4.06534921144712 7.66251162707673e-24 8.268722873558155e-16 8.268643562499872e-16 7.931105828046675e-21
4.189162171576248 7.859059470228657e-24 8.739109506299619e-16 8.739017825494326e-16 9.168080529389371e-21
4.316745939156006 8.139287620375175e-24 9.326363057971096e-16 9.326257659008378e-16 1.0539896271917484e-20
4.448215356677963 8.492621102959573e-24 1.0027599653847763e-15 1.0027479244644224e-15 1.2040920354037891e-20
4.58368876423945 8.920200769004426e-24 1.0853234416931198e-15 1.0853097568553483e-15 1.368483777173491e-20
4.723288106065518 9.431825191154566e-24 1.1825230450532936e-15 1.1825075507849633e-15 1.5494268330739768e-20
4.867139040275056 1.0047230187307975e-23 1.2980443713680356e-15 1.2980269259236594e-15 1.744544437625262e-20
4.940699165968905 1.0418777135084596e-23 1.3663897398835676e-15 1.3663712561185118e-15 1.848376505580592e-20
5.015371051989984 1.080336254195352e-23 1.4382402960669876e-15 1.4382207321566246e-15 1.9563910362737565e-20
5.091171501069577 1.1273227242729425e-23 1.5234753141012994e-15 1.5234546074757302e-15 2.0706625569123353e-20
5.129500256944802 1.1514300388681541e-23 1.567768897054128e-15 1.5677476024776192e-15 2.1294576508682417e-20
5.168117569889187 1.1765633775734396e-23 1.6140505944028575e-15 1.6140286966591821e-15 2.1897743675192797e-20
5.20702561229733 1.2074585590360814e-23 1.6689040987742317e-15 1.6688815510580409e-15 2.2547716191286886e-20
5.246226572918644 1.2391380773396272e-23 1.7255842910857634e-15 1.725561079715853e-15 2.3211369910683074e-20
5.265937586045735 1.255279780529863e-23 1.7546304985532387e-15 1.7546069501768095e-15 2.3548376428929463e-20
5.285722656980489 1.2716270863879768e-23 1.7841590818608463e-15 1.7841351929983786e-15 2.3888862467557347e-20
5.305582063971359 1.2881833134840485e-23 1.8141790131846425e-15 1.81415478033669e-15 2.423284795331487e-20
5.3255160863122235 1.3059790418224867e-23 1.846151516638718e-15 1.846126934413475e-15 2.4582225243351972e-20
5.365609099470188 1.350372080923854e-23 1.92327733292712e-15 1.923252026617916e-15 2.5306309203702235e-20
5.406003951863644 1.3964546556659063e-23 2.003884242220488e-15 2.0038581963920343e-15 2.6045828454129057e-20
5.446702915881641 1.4443086597266448e-23 2.0881569407247894e-15 2.0881301397412334e-15 2.6800983556205858e-20
5.487708281020852 1.4960319674563613e-23 2.1792212421247843e-15 2.1791936678557407e-15 2.757426904431433e-20
5.529022354014368 1.5680582704624063e-23 2.3013357088567643e-15 2.3013073249239877e-15 2.8383932776530155e-20
5.570647458961463 1.6443394107124943e-23 2.4314568890897796e-15 2.4314276778859622e-15 2.921120381645273e-20
5.612585937458331 1.7251824763493816e-23 2.5702032887487956e-15 2.570173232408481e-15 3.0056340314630624e-20
5.654840148729818 1.8140754595396293e-23 2.722984154677314e-15 2.7229532320881977e-15 3.0922589116595524e-20
5.67608639626678 1.8746924514322788e-23 2.824544758020536e-15 2.8245133823590156e-15 3.137566152113477e-20
5.686739436050992 1.9059398469213673e-23 2.8770138486157667e-15 2.8769822445236677e-15 3.1604092098796826e-20
5.6974124697621304 1.9378331813052525e-23 2.9306468147028284e-15 2.930614980910363e-15 3.1833792465600094e-20
5.718818669136295 2.003619994048014e-23 3.0415230785454935e-15 3.041490781522156e-15 3.229702333708474e-20
5.740305295436557 2.0761586280724907e-23 3.163479003687924e-15 3.1634462356142135e-15 3.27680737103885e-20
5.7835210386641895 2.2644780487340242e-23 3.4764010137919168e-15 3.4763672668178686e-15 3.374697404877718e-20
5.827062130521658 2.481486123103609e-23 3.838229443890868e-15 3.8381946888913255e-15 3.475499954144041e-20
5.8489554468988025 2.6338218393322293e-23 4.089160347030721e-15 4.089125050927611e-15 3.5296103111628804e-20
5.870931020387893 2.7973154621505253e-23 4.359311033306787e-15 4.3592751893095205e-15 3.584399726783144e-20
5.892989160043636 2.972865686253678e-23 4.650293495730702e-15 4.650257096977185e-15 3.639875351790719e-20
5.915130176081913 3.1725552499693106e-23 4.981302704828631e-15 4.981265731393914e-15 3.697343471936835e-20
5.95966208400165 3.731108456388652e-23 5.902404134806588e-15 5.90236587651824e-15 3.8258288345929336e-20
6.004529249263818 4.5364412911536096e-23 7.230422784404929e-15 7.2303830898157e-15 3.9694589227918064e-20
6.027089341400364 5.0963656537682645e-23 8.153379224903439e-15 8.153338712230672e-15 4.051267276602453e-20
6.049734195844842 5.758118066487564e-23 9.246689880207038e-15 9.246648502077764e-15 4.1378129272609936e-20
6.095279466722835 7.669925603148143e-23 1.2409497821020103e-14 1.2409454358733649e-14 4.346228645359172e-20
6.141167624020661 1.0612528205730654e-22 1.7299726700291858e-14 1.7299680584416204e-14 4.6115875654268595e-20
6.164241091010745 1.2491721976038723e-22 2.043955135826726e-14 2.0439503603764173e-14 4.775450308048611e-20
6.187401249150058 1.463253341157593e-22 2.4032405217692227e-14 2.403235576858604e-14 4.944910619006448e-20
6.1990139391386085 1.5677832924380853e-22 2.5797527133049604e-14 2.5797476819396866e-14 5.031365274136444e-20
6.204828454712694 1.6228470652554862e-22 2.672863660907937e-14 2.672858585747728e-14 5.075160208436845e-20
6.210648424152782 1.6630399383903562e-22 2.741631348366479e-14 2.7416262351972374e-14 5.113169240751299e-20
6.233982942956859 1.799587748985478e-22 2.9778860183673606e-14 2.977880769508243e-14 5.2488591177430144e-20
6.239830258556775 1.817038808941974e-22 3.0095836028758105e-14 3.009578332884171e-14 5.269991638963508e-20
6.245683058788269 1.8185440405821195e-22 3.014901986929354e-14 3.014896695731251e-14 5.291198101941569e-20
6.257405133728602 1.8147741433157207e-22 3.014298726479854e-14 3.014293396795062e-14 5.3296847920761105e-20
6.269149208991335 1.7878934153015996e-22 2.9752239705117994e-14 2.9752186201724605e-14 5.3503393388190685e-20
6.280915325867298 1.7205112603623172e-22 2.8684672184293276e-14 2.868461869600012e-14 5.3488293156905656e-20
6.304513850009849 1.5543541995910187e-22 2.6011837192222562e-14 2.6011783935762976e-14 5.3256459587034833e-20
6.32820103803542 1.348407377147791e-22 2.2650136341171197e-14 2.265008353224663e-14 5.2808924569830334e-20
6.3519772230701035 1.1595376483944964e-22 1.9550740858132522e-14 1.9550688429395733e-14 5.2428736789431556e-20
6.375842739491607 1.0006466339712349e-22 1.6935100118110432e-14 1.6935048000047054e-14 5.211806338074906e-20
6.399797922933955 8.732884474458315e-23 1.4835200121620137e-14 1.483514805580014e-14 5.206581999399824e-20
6.42384311029221 7.674019053886337e-23 1.3085406898789773e-14 1.3085354832643297e-14 5.2066146477361244e-20
6.447978639727206 6.902282641266477e-23 1.181369522066942e-14 1.1813642948696028e-14 5.227197338991015e-20
6.472204850670314 6.259367705740535e-23 1.075355727415708e-14 1.075350475327553e-14 5.252088154855413e-20
6.496522083828205 5.841386565696816e-23 1.0073173160799461e-14 1.0073120221341545e-14 5.293945791923416e-20
