Dust emission spectrum from A.P. Jones, M. Kohler, N. Ysard, M. Bocchio, and L. Verstraete (2017), A&A, 602A, 46J 
inside the DustPedia framework.

lambda    nu*dP/dnu     j_nu    j_nu(carb.) j_nu(sil)
 (um)   (erg s-1 H-1) (Jy cm2 sr-1 H-1)
0.9927057738263894 3.2443868350224715e-25 8.549143587777576e-18 8.54914358731187e-18 4.65707218015589e-28
1.0001793341362166 3.2977546171790487e-25 8.755191444103105e-18 8.755191443542157e-18 5.609503903018503e-28
1.0077091589558085 3.35104209930895e-25 8.963642411703094e-18 8.963642411028296e-18 6.7480024406910195e-28
1.0114953028030835 3.3776491942176095e-25 9.068758664716328e-18 9.068758663976569e-18 7.397581472523744e-28
1.0152956718711033 3.4042283954236268e-25 9.174463090518074e-18 9.174463089707367e-18 8.107061133116503e-28
1.0229392996569957 3.4572665940631614e-25 9.387547914477494e-18 9.38754791350476e-18 9.727322378642345e-28
1.0267826658714554 3.4836610428054845e-25 9.494756977891368e-18 9.494756976826335e-18 1.0650300035271423e-27
1.0306404723013447 3.5100159801446527e-25 9.602531036910176e-18 9.602531035744469e-18 1.1657064473725614e-27
1.03451277320114 3.536328876921331e-25 9.710865472434034e-18 9.71086547115855e-18 1.2754848753049926e-27
1.0383996230291617 3.562597218546876e-25 9.819755609125462e-18 9.819755607730315e-18 1.3951475639635286e-27
1.0403485208654093 3.57571389947295e-25 9.874407589268923e-18 9.874407587809974e-18 1.4589471940027846e-27
1.0423010764483396 3.5888185054890876e-25 9.929196716548753e-18 9.929196715023215e-18 1.525540263565532e-27
1.0462171883269815 3.6149902537473087e-25 1.003918401031124e-17 1.0039184008643664e-17 1.6675770192989445e-27
1.0471985131304309 3.6215251608151854e-25 1.0066765609651298e-17 1.0066765607946281e-17 1.7050196234280367e-27
1.048180758391296 3.6280567789811336e-25 1.0094380967474306e-17 1.0094380965731039e-17 1.7432674944098394e-27
1.0501480137395462 3.6411099953168187e-25 1.014971265320592e-17 1.0149712651383677e-17 1.8222453318311446e-27
1.0521189612883777 3.654149596827578e-25 1.020517845479061e-17 1.0205178452885964e-17 1.9046463523472044e-27
1.0531058218030118 3.6606541447741245e-25 1.0232933357671398e-17 1.0232933355724223e-17 1.9471772069008396e-27
1.0540936079674168 3.6671222418965306e-25 1.0260629359231355e-17 1.0260629357240733e-17 1.9906265679697052e-27
1.058054026499678 3.6929573390661576e-25 1.0371738728391418e-17 1.0371738726217522e-17 2.1738966280597314e-27
1.0590464539527713 3.6994066029050037e-25 1.039959701818256e-17 1.0399597015960381e-17 2.222179424854948e-27
1.06003981227728 3.705851987760331e-25 1.0427487529037087e-17 1.0427487526765598e-17 2.2714884973828875e-27
1.0620293250338977 3.718730971487506e-25 1.0483364896603414e-17 1.0483364894230141e-17 2.3732688919773825e-27
1.0660195594769086 3.7444407558280006e-25 1.0595502783771094e-17 1.059550278118101e-17 2.5900852546426567e-27
1.070024785945596 3.770084327373045e-25 1.0708147264086712e-17 1.070814726126092e-17 2.825792922874605e-27
1.0740450607676866 3.795659340419027e-25 1.0821293167180934e-17 1.0821293164098981e-17 3.0819521295279735e-27
1.07808044048254 3.821163468655545e-25 1.0934935279271057e-17 1.0934935275910813e-17 3.3602443688434366e-27
1.0861967418109137 3.871904612055384e-25 1.116355659190665e-17 1.1163556587916033e-17 3.990614072119923e-27
1.0902777775684922 3.897034176105477e-25 1.1278226383192014e-17 1.127822637884527e-17 4.3467442529980696e-27
1.0943741465085532 3.9220819618828727e-25 1.139336269526854e-17 1.139336269053541e-17 4.733131135079828e-27
1.1026131145906286 3.9719233771055893e-25 1.1625013037848197e-17 1.162501303224161e-17 5.606586297966955e-27
1.1109141095355224 4.0214114347847527e-25 1.1858463583932465e-17 1.1858463577299752e-17 6.632715624802727e-27
1.1192775983109025 4.0704829351939683e-25 1.209353269665077e-17 1.2093532688814146e-17 7.836624468948174e-27
1.1277040513999907 4.1189092791266604e-25 1.2329537909328607e-17 1.2329537900081336e-17 9.247270559554182e-27
1.1361939428280308 4.166925640631692e-25 1.2567174723997818e-17 1.256717471309981e-17 1.0898006316624298e-26
1.1447477501889525 4.214516204487747e-25 1.2806396965748311e-17 1.2806396952921114e-17 1.2827198096047858e-26
1.1533659546722406 4.261691560449797e-25 1.3047237717533972e-17 1.304723770245503e-17 1.5078941894089897e-26
1.1707974979042381 4.354950556678767e-25 1.3534257884383319e-17 1.3534257863623318e-17 2.0759996302775165e-26
1.1884924949847024 4.4463503285215425e-25 1.4027153660563783e-17 1.4027153632123748e-17 2.84400302910185e-26
1.2064549276569216 4.536610465840764e-25 1.4528207197027047e-17 1.4528207158255852e-17 3.8771196214889997e-26
1.2246888378427687 4.624743839023873e-25 1.50342883361028e-17 1.5034288283503584e-17 5.259921764321365e-26
1.2431983285522175 4.710545853260472e-25 1.554465494833683e-17 1.5544654877319747e-17 7.10170802538524e-26
1.2619875648066055 4.793987165228364e-25 1.60591064009894e-17 1.60591063055593e-17 9.543009982982266e-26
1.3004222497298317 4.952407284258241e-25 1.7095042241210672e-17 1.709504207129415e-17 1.6991652267316936e-25
1.3400274889804893 5.099406048962225e-25 1.8138557049713473e-17 1.813855675266272e-17 2.970507533638666e-25
1.3808389325824078 5.234462682972239e-25 1.9186005493904332e-17 1.918600498378602e-17 5.101183189155779e-25
1.4228933163050095 5.35826284019416e-25 2.0237915850887454e-17 2.0237914989954706e-17 8.609327566975384e-25
1.466228494730424 5.473815931944316e-25 2.1304006095438778e-17 2.130400466673707e-17 1.4287017095702353e-24
1.5108834753276823 5.578906964192188e-25 2.2374303424467743e-17 2.2374301092198344e-17 2.33226939815576e-24
1.5568984535646726 5.671752030132657e-25 2.3439425098484678e-17 2.343942134933952e-17 3.749145149952878e-24
1.6043148490894465 5.752553396017671e-25 2.4497383150845364e-17 2.4497377205213768e-17 5.9456315958295924e-24
1.6531753430134553 5.821589658843151e-25 2.5546413806486082e-17 2.5546404515140734e-17 9.291345346198641e-24
1.7035239163302658 5.879703120193645e-25 2.6587228391930218e-17 2.6587214080633025e-17 1.4311297201235664e-23
1.755405889504358 5.931595519956641e-25 2.7638757322739737e-17 2.763873558485299e-17 2.173788675737076e-23
1.8088679632656115 5.976150158599234e-25 2.869444315808111e-17 2.8694410585774586e-17 3.2572306541921793e-23
1.8639582606462262 6.0126203522666115e-25 2.9748796349180034e-17 2.9748748182572295e-17 4.8166607741391895e-23
1.9207263702978936 6.041604959983309e-25 3.0802591538044774e-17 3.080252121865355e-17 7.031939122390641e-23
1.979223391128241 6.064453184067022e-25 3.1860742731353376e-17 3.1860641339156446e-17 1.0139219691903711e-22
2.039501978296691 6.082768954045704e-25 3.293023914455137e-17 3.2930094703386224e-17 1.444411651499775e-22
2.1016163906111602 6.10099482539765e-25 3.4034826149955417e-17 3.403462276653204e-17 2.0338342337466556e-22
2.1656225393682647 6.1217146280178965e-25 3.5190486945939053e-17 3.5190203787346665e-17 2.8315859237394994e-22
2.231578038680979 6.145126272888871e-25 3.6400916903895185e-17 3.6400526988094367e-17 3.899158008251029e-22
2.299542257339062 6.172777318915075e-25 3.7678311998723063e-17 3.767778077925905e-17 5.3121946399635e-22
2.369576372248914 6.208062311376436e-25 3.9047767712962e-17 3.9047051433979116e-17 7.162789828701815e-22
2.4417434235010123 6.25498406050554e-25 4.054111296088448e-17 4.0540156804273515e-17 9.561566109665663e-22
2.5161083711144245 6.320389376252017e-25 4.2212649341009663e-17 4.2211385310328595e-17 1.2640306810561816e-21
2.5927381535095444 6.415473456846083e-25 4.415265299876255e-17 4.415099758092631e-17 1.6554178362397918e-21
2.6717017477616296 6.553573459820116e-25 4.6476731606208807e-17 4.6474583311767344e-17 2.1482944414596426e-21
2.753070231689431 6.754756302614549e-25 4.93624161224599e-17 4.935965283685849e-17 2.763285601381248e-21
2.836916847834745 7.064517721890615e-25 5.319839851191682e-17 5.319487458227182e-17 3.5239296449948e-21
2.9233170693905177 7.583054392330013e-25 5.884228465587643e-17 5.88378286146518e-17 4.456041224599717e-21
2.967498994190263 8.019539660791178e-25 6.31697928913323e-17 6.31648057166137e-17 4.987174718591881e-21
3.0123486681368425 8.528416778584011e-25 6.819351670486277e-17 6.818794250947536e-17 5.5741953874088745e-21
3.0578761833420214 9.659554873721516e-25 7.840548459882766e-17 7.839926085422702e-17 6.2237446006385015e-21
3.1040917844459814 1.1115328253243491e-24 9.158540706550993e-17 9.157847109079503e-17 6.935974714884854e-21
3.127460860933648 1.2651815902394753e-24 1.0503019704171681e-16 1.0502287758029384e-16 7.319461422993354e-21
3.1510058709225794 1.4697836679657333e-24 1.229340141012071e-16 1.2292629333131305e-16 7.720769894042386e-21
3.162844764501044 1.660111973509033e-24 1.3937493947991957e-16 1.393670104221347e-16 7.929057784831744e-21
3.1747281389236908 1.8814009235761824e-24 1.5854674389722132e-16 1.5853860188801245e-16 8.142009208852556e-21
3.1986289994194426 2.498474351788133e-24 2.1213298294208506e-16 2.1212439966095035e-16 8.583281134778243e-21
3.2227097969389145 3.952627277904446e-24 3.3812438757847076e-16 3.381153350358049e-16 9.052542665855368e-21
3.2348180950136065 5.3314469497356474e-24 4.57787983853337e-16 4.57778680446507e-16 9.303406830036963e-21
3.240889293275058 6.362261483534176e-24 5.473248205999378e-16 5.4731538485421e-16 9.435745727852304e-21
3.2469718861334385 7.554768900260779e-24 6.511321587045907e-16 6.511225860132465e-16 9.572691344266864e-21
3.2714166318528037 1.3914918988404098e-23 1.2083311531597503e-15 1.208321013161749e-15 1.0139998001437314e-20
3.2744851364798273 1.4312507024900514e-23 1.2440223110306111e-15 1.244012103798203e-15 1.020723240835702e-20
3.2775565192852394 1.4721507608659305e-23 1.2807722530500552e-15 1.2807619782108542e-15 1.0274839200817969e-20
3.283707930232385 1.4328192133174717e-23 1.2488933449835998e-15 1.248882948483255e-15 1.0396500345534463e-20
3.2898708863219004 1.3080835336201172e-23 1.1423094400314552e-15 1.1422989321111228e-15 1.0507920332314896e-20
3.29141343181113 1.2786673659784007e-23 1.1171447565572508e-15 1.1171342206395285e-15 1.053591772199974e-20
3.292184975758714 1.2642132449653368e-23 1.104775406307303e-15 1.1047648563694802e-15 1.0549937822663591e-20
3.295272960557952 1.1729856794042849e-23 1.0260145930239502e-15 1.0260039884186762e-15 1.0604605273953964e-20
3.3076538914384823 8.56930405717057e-24 7.523761932286368e-16 7.523653686797904e-16 1.0824548846557113e-20
3.310756385682612 7.926005519334398e-24 6.965479667660148e-16 6.96537086700656e-16 1.08800653586495e-20
3.313861789986515 7.332443915544361e-24 6.44989395614625e-16 6.449784598196324e-16 1.0935794992603142e-20
3.3200813396944477 6.500077163399085e-24 5.728443962597468e-16 5.728333409138273e-16 1.1055345919358358e-20
3.345076488085796 5.015558808241575e-24 4.453431870107001e-16 4.45331599656255e-16 1.1587354445119872e-20
3.3482140837626964 5.0712846175542834e-24 4.50713573411114e-16 4.507019140122539e-16 1.1659398859952969e-20
3.3513546224236106 5.1276254356334454e-24 4.561483531245183e-16 4.56136621315323e-16 1.1731809195607392e-20
3.3576445397418455 5.539145283429824e-24 4.936815608184993e-16 4.936696777350528e-16 1.1883083446605024e-20
3.3702598118196083 7.056721393065277e-24 6.312999953657567e-16 6.312877948769347e-16 1.2200488821960349e-20
3.382922481734668 7.402528422603734e-24 6.647243114681618e-16 6.647118010739952e-16 1.2510394166698675e-20
3.389271646505754 7.581671167436823e-24 6.8208854458247325e-16 6.820758768260911e-16 1.2667756382260353e-20
3.395632727569191 7.774734113500972e-24 7.007703033334889e-16 7.007574733892417e-16 1.2829944247163041e-20
3.421196662673239 8.701788489128424e-24 7.902345172262222e-16 7.902210142827892e-16 1.350294343308792e-20
3.4276182099114902 8.515183723620068e-24 7.747398536535302e-16 7.747261989980425e-16 1.365465548781672e-20
3.4340518103208963 7.69714900067581e-24 7.016268008059489e-16 7.016130019194562e-16 1.379888649265187e-20
3.4469541582030403 6.53207243709832e-24 5.976623978527904e-16 5.976483206204598e-16 1.4077232330411393e-20
3.472904465399547 6.2057480290485004e-24 5.720795293372111e-16 5.720648129462774e-16 1.4716390933727055e-20
3.4990501388274233 5.7065944173055524e-24 5.300253065547656e-16 5.300099325018568e-16 1.5374052908744497e-20
3.5253949054701885 3.929764309036399e-24 3.677424029797738e-16 3.677263843581189e-16 1.601862165479938e-20
3.5519380250092896 2.2596244390478508e-24 2.1304486738917024e-16 2.130281962633789e-16 1.6671125791263387e-20
3.578680990867387 1.5976385955328225e-24 1.517647682654443e-16 1.5174738104729468e-16 1.7387218149603285e-20
3.605625307711299 1.3301193372001548e-24 1.2730358490176898e-16 1.2728544050090316e-16 1.814440086579878e-20
3.660119384959845 1.1354456924243154e-24 1.1031410642863263e-16 1.1029435806905082e-16 1.974835958179546e-20
3.715437065384467 9.977794536564865e-25 9.840425983056883e-17 9.838280109854647e-17 2.145873202233231e-20
3.8285932144167436 9.290016575891153e-25 9.441155424272816e-17 9.438635025735053e-17 2.5203985377644424e-20
3.94519561050918 9.169655628754105e-25 9.602647794391657e-17 9.599708285646299e-17 2.939508745359907e-20
4.06534921144712 9.282280952274377e-25 1.0016638481519101e-16 1.0013232808559113e-16 3.405672959983864e-20
4.189162171576248 9.529768226219688e-25 1.0596902646439127e-16 1.0592979776222232e-16 3.922870216895648e-20
4.316745939156006 9.87544101886914e-25 1.131572596955459e-16 1.131123304968292e-16 4.4929198716715826e-20
4.448215356677963 1.0306877460087829e-24 1.2169769450212575e-16 1.2164657029122732e-16 5.112421089844443e-20
4.58368876423945 1.082537268869974e-24 1.3171262674866459e-16 1.316547664441277e-16 5.7860304536875e-20
4.723288106065518 1.1442376100662108e-24 1.4345975625046182e-16 1.4339453670235249e-16 6.521954810929866e-20
4.867139040275056 1.2180957028253409e-24 1.5737096108710447e-16 1.5729787430357863e-16 7.308678352583401e-20
4.940699165968905 1.262506944100945e-24 1.6557380128059343e-16 1.6549655530518044e-16 7.72459754130469e-20
5.015371051989984 1.3084386610638035e-24 1.741910631959234e-16 1.7410951036880593e-16 8.155282711747302e-20
5.091171501069577 1.3643698284900902e-24 1.8438231646131696e-16 1.8429622557196054e-16 8.609088935643441e-20
5.129500256944802 1.393049774000358e-24 1.8967545000587934e-16 1.8958703275529176e-16 8.841725058756736e-20
5.168117569889187 1.4229301600796398e-24 1.9520251220185038e-16 1.951117132602479e-16 9.079894160250165e-20
5.20702561229733 1.4595735845438277e-24 2.0173680657432839e-16 2.016434376876968e-16 9.336888663150192e-20
5.246226572918644 1.497130378649282e-24 2.0848561676443492e-16 2.0838963019005827e-16 9.598657437657253e-20
5.265937586045735 1.5162603451935573e-24 2.119429219437017e-16 2.118456085396451e-16 9.731340405660598e-20
5.285722656980489 1.5356296809322434e-24 2.1545684823313149e-16 2.1535819596569903e-16 9.865226743250786e-20
5.305582063971359 1.5552422311647982e-24 2.1902844002586704e-16 2.1892843682942753e-16 1.0000319643950231e-19
5.3255160863122235 1.5763091601379304e-24 2.228294217202068e-16 2.22728047686472e-16 1.0137403373473552e-19
5.365609099470188 1.6287767044173199e-24 2.319797158322774e-16 2.318755025330518e-16 1.0421329922559738e-19
5.406003951863644 1.6832134396627065e-24 2.41537730877873e-16 2.414306251206735e-16 1.0710575719951912e-19
5.446702915881641 1.739714596386876e-24 2.515249828947946e-16 2.5141493111701213e-16 1.1005177778248723e-19
5.487708281020852 1.800745551815807e-24 2.6230876368577276e-16 2.6219570254956737e-16 1.1306113620531987e-19
5.529022354014368 1.885617334287051e-24 2.767396203557175e-16 2.766234122423426e-16 1.1620811337490995e-19
5.570647458961463 1.975452194572391e-24 2.921067765127225e-16 2.91987361528445e-16 1.1941498427750006e-19
5.612585937458331 2.0706078229085683e-24 3.084823263107854e-16 3.083596440476405e-16 1.2268226314493205e-19
5.654840148729818 2.1751808439610522e-24 3.2650146610586364e-16 3.2637544354907833e-16 1.2602255678518632e-19
5.67608639626678 2.246452800847665e-24 3.3846652969275247e-16 3.3833876110498914e-16 1.2776858776342867e-19
5.686739436050992 2.2831844914348227e-24 3.4464641743091363e-16 3.4451776944548357e-16 1.28647985430007e-19
5.6974124697621304 2.3206699750902285e-24 3.5096230862832714e-16 3.5083277697585943e-16 1.2953165246763312e-19
5.718818669136295 2.397974968599101e-24 3.6401594266551287e-16 3.6388463082698425e-16 1.3131183852867714e-19
5.740305295436557 2.4831943539011387e-24 3.7836864170324696e-16 3.782355218896553e-16 1.3311981359163432e-19
5.7835210386641895 2.70437015357617e-24 4.1517183833231567e-16 4.150349671006521e-16 1.3687123166354125e-19
5.827062130521658 2.959100781889953e-24 4.576978143357641e-16 4.575570904755869e-16 1.4072386017714465e-19
5.8489554468988025 3.137917682600809e-24 4.871798224283464e-16 4.870370309478919e-16 1.4279148045432494e-19
5.870931020387893 3.3297658430986674e-24 5.189076875508654e-16 5.187628057092486e-16 1.4488184161684707e-19
5.892989160043636 3.535693509363171e-24 5.530694711676861e-16 5.529224760576711e-16 1.469951100148898e-19
5.915130176081913 3.769898777373969e-24 5.91920565507717e-16 5.917713822479729e-16 1.4918325974397686e-19
5.95966208400165 4.424986076624327e-24 7.000079579677706e-16 6.998538743316076e-16 1.5408363616314413e-19
6.004529249263818 5.369282086798014e-24 8.557848993215822e-16 8.556253419194787e-16 1.5955740210367404e-19
6.027089341400364 6.0257955933469245e-24 9.640320169723738e-16 9.638693402178405e-16 1.6267675453314494e-19
6.049734195844842 6.801529044111105e-24 1.0922254294879386e-15 1.09205945527153e-15 1.6597421640845836e-19
6.095279466722835 9.042567769835138e-24 1.4630353779460037e-15 1.462861453227766e-15 1.7392471823799313e-19
6.141167624020661 1.249136828925622e-23 2.036246720174884e-15 2.0360626669449513e-15 1.8405322993257426e-19
6.164241091010745 1.4694000477607428e-23 2.4043024492264738e-15 2.4041121330219813e-15 1.9031620449191029e-19
6.187401249150058 1.720266608094137e-23 2.8253579230153757e-15 2.825161147060212e-15 1.9677595516379531e-19
6.1990139391386085 1.8427615358216797e-23 3.0322233276368035e-15 3.0320232584429756e-15 2.0006919382762212e-19
6.204828454712694 1.907283276096429e-23 3.1413361547614565e-15 3.1411344191727794e-15 2.0173558867675132e-19
6.210648424152782 1.954384523127384e-23 3.221932168721378e-15 3.221728990110377e-15 2.0317861100110721e-19
6.233982942956859 2.114394871096809e-23 3.4988162858390607e-15 3.4986079759015432e-15 2.0830993751758436e-19
6.239830258556775 2.1348417141099908e-23 3.535964441652107e-15 3.5357553451598975e-15 2.0909649220791645e-19
6.245683058788269 2.1366033028199106e-23 3.542201563009486e-15 3.541991677546057e-15 2.0988546342854865e-19
6.257405133728602 2.1321811871844403e-23 3.5415046334150014e-15 3.541293322826286e-15 2.1131058871571233e-19
6.269149208991335 2.1006782774406082e-23 3.4957276042769152e-15 3.4955155583914e-15 2.1204588551576682e-19
6.280915325867298 2.0217149608813524e-23 3.370639427884389e-15 3.370427503258381e-15 2.11924626006318e-19
6.304513850009849 1.826998805447762e-23 3.057449549799955e-15 3.0572386459228286e-15 2.1090387712704042e-19
6.32820103803542 1.5856711869900226e-23 2.663562153861925e-15 2.6633530987148127e-15 2.0905514711258828e-19
6.3519772230701035 1.3643564722425103e-23 2.3004151580470412e-15 2.3002076887616047e-15 2.0746928543728787e-19
6.375842739491607 1.1781452826388156e-23 1.9939115006048585e-15 1.993705350680425e-15 2.0614992443326657e-19
6.399797922933955 1.0289193868285034e-23 1.7479018596043365e-15 1.7476960289284789e-15 2.058306758568973e-19
6.42384311029221 9.048310903460755e-24 1.5428790192875349e-15 1.5426733080786643e-15 2.0571120887086358e-19
6.447978639727206 8.144061934794005e-24 1.3939079367844915e-15 1.3937015555828839e-15 2.0638120160803242e-19
6.472204850670314 7.390647647115572e-24 1.2697089626717962e-15 1.269501748899581e-15 2.0721377221508075e-19
6.496522083828205 6.900935852979688e-24 1.1900311858635127e-15 1.1898224909887271e-15 2.0869487478520702e-19
6.520930681187647 6.488321009265738e-24 1.1230816854085942e-15 1.1228714002422004e-15 2.1028516639387966e-19
