Dust emission spectrum from A.P. Jones, M. Kohler, N. Ysard, M. Bocchio, and L. Verstraete (2017), A&A, 602A, 46J 
inside the DustPedia framework.

lambda    nu*dP/dnu     j_nu    j_nu(carb.) j_nu(sil)
 (um)   (erg s-1 H-1) (Jy cm2 sr-1 H-1)
0.9927057738263894 7.172761972392736e-20 1.890063520200158e-12 1.8900634764864635e-12 4.371369412626084e-20
1.0001793341362166 7.293031730189398e-20 1.9362231705507124e-12 1.9362231179585307e-12 5.2592181497121347e-20
1.0077091589558085 7.413820798837719e-20 1.983109629059347e-12 1.9831095658702906e-12 6.318905605492707e-20
1.0114953028030835 7.474405322739823e-20 2.006827060378005e-12 2.0068269911497552e-12 6.922824978452649e-20
1.0152956718711033 7.535114072283094e-20 2.0307281976714098e-12 2.03072812185227e-12 7.581914032220589e-20
1.0229392996569957 7.656837900119211e-20 2.0790682669420764e-12 2.0790681760894196e-12 9.085265658846687e-20
1.0267826658714554 7.717715024111013e-20 2.1034718268555345e-12 2.1034717274492227e-12 9.940631152820153e-20
1.0306404723013447 7.778706585692332e-20 2.1280607221922082e-12 2.128060613463439e-12 1.087287688719091e-19
1.03451277320114 7.839811045476798e-20 2.152835696045507e-12 2.152835577159917e-12 1.1888558984436386e-19
1.0383996230291617 7.901026924307666e-20 2.177797508343298e-12 2.1777973783956955e-12 1.2994760208579212e-19
1.0403485208654093 7.93167620044744e-20 2.1903487211565254e-12 2.1903485853148e-12 1.3584172524288527e-19
1.0423010764483396 7.962352804676514e-20 2.2029469365273037e-12 2.202946794536009e-12 1.4199129458413205e-19
1.0462171883269815 8.023787332129025e-20 2.2282847762410122e-12 2.2282846211417725e-12 1.5509923992849303e-19
1.0471985131304309 8.039162787490343e-20 2.2346487704997676e-12 2.2346486119469595e-12 1.5855280771288307e-19
1.048180758391296 8.054544932828881e-20 2.2410246042083035e-12 2.2410244421284182e-12 1.6207988527178836e-19
1.0501480137395462 8.085329216656871e-20 2.2538118420258613e-12 2.2538116726653153e-12 1.6936054559802659e-19
1.0521189612883777 8.116140032657572e-20 2.2666465945797135e-12 2.266646417626254e-12 1.7695345951297971e-19
1.0531058218030118 8.131535125241997e-20 2.2730761700324416e-12 2.2730759891612125e-12 1.808712293562849e-19
1.0540936079674168 8.146870558012068e-20 2.279499120001104e-12 2.2794989351283394e-12 1.848727644761186e-19
1.058054026499678 8.208275071033168e-20 2.305309177198685e-12 2.3053089754567845e-12 2.0174190159643314e-19
1.0590464539527713 8.223641811206411e-20 2.3117913232696837e-12 2.3117911170860133e-12 2.0618366988148875e-19
1.06003981227728 8.239014763678899e-20 2.3182853493222236e-12 2.318285138603382e-12 2.107188418685854e-19
1.0620293250338977 8.269779242796422e-20 2.3313090966059636e-12 2.3313088765290727e-12 2.2007689114920575e-19
1.0660195594769086 8.331382074288186e-20 2.3574997634396e-12 2.3574995234413293e-12 2.399982703717945e-19
1.070024785945596 8.39308263833183e-20 2.3838820855641224e-12 2.3838818239282372e-12 2.616358851942795e-19
1.0740450607676866 8.454880080869507e-20 2.410456994234549e-12 2.4104567091049906e-12 2.8512955887781914e-19
1.07808044048254 8.516773622223596e-20 2.437225444845608e-12 2.4372251342158027e-12 3.1062980474086996e-19
1.0861967418109137 8.640752343816678e-20 2.49131984002161e-12 2.491319471711447e-12 3.683101621718566e-19
1.0902777775684922 8.702622836430941e-20 2.518585828130757e-12 2.5185854272788202e-12 4.0085193701691445e-19
1.0943741465085532 8.764583428226993e-20 2.5460477073454987e-12 2.5460472712202928e-12 4.361252062445835e-19
1.1026131145906286 8.888773503728495e-20 2.6015634759455822e-12 2.6015629601977437e-12 5.157478387767022e-19
1.1109141095355224 9.013320586250519e-20 2.657876113292586e-12 2.657875504184131e-12 6.091084546594432e-19
1.1192775983109025 9.138127504943304e-20 2.714966394077989e-12 2.714965675646788e-12 7.184312015869315e-19
1.1277040513999907 9.262751330942186e-20 2.7727108304689554e-12 2.7727099841938853e-12 8.462750700110762e-19
1.1361939428280308 9.387720148576481e-20 2.83127489045546e-12 2.8312738948751453e-12 9.955803140250783e-19
1.1447477501889525 9.513037681208616e-20 2.890669556945907e-12 2.890668387225338e-12 1.1697205684627745e-18
1.1533659546722406 9.638752199731252e-20 2.950919592994289e-12 2.950918220430852e-12 1.3725634363697472e-18
1.1707974979042381 9.891752709531817e-20 3.0741458566971796e-12 3.0741439739895802e-12 1.8827075986057883e-18
1.1884924949847024 1.0146420834770596e-19 3.2009489499986766e-12 3.200946380525213e-12 2.5694734639383137e-18
1.2064549276569216 1.0404463070069369e-19 3.331963288317504e-12 3.3319597989394722e-12 3.489378031358804e-18
1.2246888378427687 1.0664275265514085e-19 3.4667820492982853e-12 3.4667773339781097e-12 4.715320175800631e-18
1.2431983285522175 1.09256671099784e-19 3.6054361977487693e-12 3.605429856754541e-12 6.340994228511373e-18
1.2619875648066055 1.1189045262566944e-19 3.748154974221535e-12 3.748146488010723e-12 8.486210812607554e-18
1.3004222497298317 1.1720267899722987e-19 4.045678461481367e-12 4.045663476738065e-12 1.4984743301322885e-17
1.3400274889804893 1.2259651921215396e-19 4.3607509119194316e-12 4.360724938700034e-12 2.597321939621938e-17
1.3808389325824078 1.2809224632589148e-19 4.694996775370335e-12 4.694952562507189e-12 4.421286314462237e-17
1.4228933163050095 1.3373463203606706e-19 5.051096428478395e-12 5.051022479175069e-12 7.394930332588692e-17
1.466228494730424 1.3961723285871926e-19 5.433880891924572e-12 5.43375930128047e-12 1.2159064410029719e-16
1.5108834753276823 1.4572701205821667e-19 5.8444071676748735e-12 5.844210542638479e-12 1.9662503639370194e-16
1.5568984535646726 1.5205552217908628e-19 6.283938373878992e-12 6.283625325967492e-12 3.1304791149895416e-16
1.6043148490894465 1.586326423822009e-19 6.75540816945399e-12 6.754916545409407e-12 4.916240445814736e-16
1.6531753430134553 1.6548810255453323e-19 7.261981341275803e-12 7.261220690015294e-12 7.606512605089224e-16
1.7035239163302658 1.7265488086665723e-19 7.807221991902437e-12 7.80606222973726e-12 1.1597621651766072e-15
1.755405889504358 1.8024577518877602e-19 8.398700184681676e-12 8.396956774659898e-12 1.7434100217787234e-15
1.8088679632656115 1.882425477692383e-19 9.038452755616256e-12 9.035867937720626e-12 2.5848178956309373e-15
1.8639582606462262 1.9661905362490622e-19 9.728171482589692e-12 9.724390266183686e-12 3.781216406006803e-15
1.9207263702978936 2.053720581161316e-19 1.0470713761292116e-11 1.046525409597824e-11 5.459665313875723e-15
1.979223391128241 2.1450570528528575e-19 1.126945972385046e-11 1.1261675788369087e-11 7.783935481374613e-15
2.039501978296691 2.2401400488519687e-19 1.2127428821198006e-11 1.2116466976353648e-11 1.096184484436007e-14
2.1016163906111602 2.339528123216431e-19 1.3051221190211856e-11 1.3035966754270965e-11 1.525443594089143e-14
2.1656225393682647 2.443215698972532e-19 1.4044749777668808e-11 1.4023766010946137e-11 2.0983766722672477e-14
2.231578038680979 2.550408977275772e-19 1.5107456076589327e-11 1.5078914500155298e-11 2.854157643403004e-14
2.299542257339062 2.660638279056229e-19 1.6240397800652526e-11 1.6201999715048064e-11 3.83980856044611e-14
2.369576372248914 2.7736368422284485e-19 1.744575387669344e-11 1.739464275171316e-11 5.111112498028457e-14
2.4417434235010123 2.8891886086203523e-19 1.872601442535276e-11 1.865868222333196e-11 6.733220202080033e-14
2.5161083711144245 3.0075507877802985e-19 2.0086845797328433e-11 1.9999030900074975e-11 8.781489725346073e-14
2.5927381535095444 3.1296047104553245e-19 2.1538605331859275e-11 2.1425186868334845e-11 1.1341846352443627e-13
2.6717017477616296 3.255968601770727e-19 2.3090727486389497e-11 2.2945624192616453e-11 1.451032937730464e-13
2.753070231689431 3.387894756644415e-19 2.475806132219018e-11 2.4574132266383926e-11 1.839290558062475e-13
2.836916847834745 3.5300451320992916e-19 2.6582529069261474e-11 2.635147224408729e-11 2.310568251741848e-13
2.9233170693905177 3.693452918829749e-19 2.8660114614591252e-11 2.8372436755890603e-11 2.876778587006499e-13
2.967498994190263 3.794319422406569e-19 2.988779683313343e-11 2.9568513485767704e-11 3.1928334736572373e-13
3.0123486681368425 3.9018029823823134e-19 3.119895213450731e-11 3.0845045287801136e-11 3.53906846706184e-13
3.0578761833420214 4.085116184150202e-19 3.315841343084691e-11 3.276650994253944e-11 3.9190348830746007e-13
3.1040917844459814 4.300331377152497e-19 3.543283569499356e-11 3.499972477255134e-11 4.331109224422149e-13
3.127460860933648 4.505425790396117e-19 3.7402200772820905e-11 3.694708210754689e-11 4.551186652740166e-13
3.1510058709225794 4.767225274737772e-19 3.987349648260668e-11 3.9395478349940646e-11 4.780181326660207e-13
3.162844764501044 5.0070998865954025e-19 4.203717910600017e-11 4.154732595824295e-11 4.898531477572081e-13
3.1747281389236908 5.27843961449873e-19 4.4481715898498134e-11 4.3979797975037446e-11 5.019179234606982e-13
3.1986289994194426 6.014340245346649e-19 5.1064760211002786e-11 5.0537949785529373e-11 5.26810425473417e-13
3.2227097969389145 7.727508498015643e-19 6.610436286277464e-11 6.55512164479649e-11 5.531464148097525e-13
3.2348180950136065 9.337119642006266e-19 8.017375425865171e-11 7.960656363915168e-11 5.671906195000647e-13
3.240889293275058 1.0540519102781704e-18 9.067668378438827e-11 9.010208512260795e-11 5.745986617802973e-13
3.2469718861334385 1.1935644040733543e-18 1.0287120324096412e-10 1.022889394656666e-10 5.822637752975025e-13
3.2714166318528037 1.9246360000653586e-18 1.6712980070597354e-10 1.6651589432245962e-10 6.139063835139237e-13
3.2744851364798273 1.970209974743847e-18 1.7124778780770165e-10 1.7063016194571437e-10 6.176258619872695e-13
3.2775565192852394 2.0169950238107887e-18 1.7547871656279071e-10 1.748573534972085e-10 6.213630655822423e-13
3.283707930232385 1.9715018263631444e-18 1.718427201200848e-10 1.7121469307587949e-10 6.280270442053653e-13
3.2898708863219004 1.827717822670116e-18 1.5960902105171963e-10 1.589749471879985e-10 6.340738637211421e-13
3.29141343181113 1.7937290268278675e-18 1.5671432855189812e-10 1.5607873674750416e-10 6.355918043939957e-13
3.292184975758714 1.777016004821925e-18 1.5529054030718933e-10 1.5465418859637586e-10 6.363517108134224e-13
3.295272960557952 1.6730148138505844e-18 1.4633917902797515e-10 1.4569987478432867e-10 6.393042436465027e-13
3.3076538914384823 1.309743447211696e-18 1.1499414448886477e-10 1.1434299023540297e-10 6.511542534618227e-13
3.310756385682612 1.2349591242197132e-18 1.0852985970247183e-10 1.0787572035558161e-10 6.541393468902651e-13
3.313861789986515 1.1656263154377382e-18 1.0253288281044751e-10 1.0187574932722426e-10 6.571334832232791e-13
3.3200813396944477 1.0687473292549184e-18 9.418748473150423e-11 9.352390282981993e-11 6.63581901684287e-13
3.345076488085796 8.992315308414456e-19 7.984486896004345e-11 7.91525276269757e-11 6.923413330677429e-13
3.3482140837626964 9.059631914104567e-19 8.051804191113774e-11 7.98218036620314e-11 6.962382491063258e-13
3.3513546224236106 9.127551140943936e-19 8.119776830943681e-11 8.04976165376904e-11 7.001517717464049e-13
3.3576445397418455 9.610089762425434e-19 8.565083367126267e-11 8.494249643264957e-11 7.083372386130773e-13
3.3702598118196083 1.135990269341636e-18 1.0162660700699786e-10 1.0090110188763894e-10 7.255051193589305e-13
3.382922481734668 1.1774231067281702e-18 1.0572897789040803e-10 1.0498681573803127e-10 7.421621523767408e-13
3.389271646505754 1.198773688393892e-18 1.0784822796222475e-10 1.0709762873133402e-10 7.505992308907364e-13
3.395632727569191 1.2223235578970867e-18 1.1017329183666413e-10 1.0941399764738162e-10 7.592941892824978e-13
3.421196662673239 1.3368473891549307e-18 1.2140296819370225e-10 1.206077128897449e-10 7.952553039573578e-13
3.4276182099114902 1.3157703661220708e-18 1.1971318223744618e-10 1.1890993429901112e-10 8.032479384350797e-13
3.4340518103208963 1.2210087102982666e-18 1.1129996770071004e-10 1.1048917602140648e-10 8.107916793035433e-13
3.4469541582030403 1.0848173115656236e-18 9.925709212596251e-11 9.843185338009936e-11 8.252387458631145e-13
3.472904465399547 1.046032183139224e-18 9.642892302438754e-11 9.557035497318913e-11 8.585680511983976e-13
3.4990501388274233 9.88087052276804e-19 9.177297429752947e-11 9.088037136531296e-11 8.926029322165131e-13
3.5253949054701885 7.858729148645342e-19 7.35409992615733e-11 7.261544691644304e-11 9.2555234513026e-13
3.5519380250092896 5.933076727586582e-19 5.593901016449786e-11 5.498043328827682e-11 9.585768762210532e-13
3.578680990867387 5.178360541620598e-19 4.91908927207577e-11 4.819613125387053e-11 9.947614668871635e-13
3.605625307711299 4.884398055880842e-19 4.674778910512856e-11 4.571497387979963e-11 1.032815225328935e-12
3.660119384959845 4.690233066577057e-19 4.5567909864254614e-11 4.445540143292725e-11 1.1125084313273452e-12
3.715437065384467 4.554427135392415e-19 4.491724394285287e-11 4.37210935295882e-11 1.1961504132646688e-12
3.8285932144167436 4.518854439590129e-19 4.592371472678791e-11 4.454909185970453e-11 1.3746228670833703e-12
3.94519561050918 4.538626854131714e-19 4.752941322433971e-11 4.596210923623354e-11 1.567303988106181e-12
4.06534921144712 4.574900134475439e-19 4.936838366744906e-11 4.7594870717234073e-11 1.7735129502149766e-12
4.189162171576248 4.616364522391004e-19 5.1333006493966343e-11 4.9339826610420373e-11 1.9931798835459556e-12
4.316745939156006 4.658366754508654e-19 5.337766845954955e-11 5.115270919087758e-11 2.2249592686719866e-12
4.448215356677963 4.698952329592079e-19 5.5482532639121514e-11 5.301750218872148e-11 2.4650304504000423e-12
4.58368876423945 4.737949901701928e-19 5.7646775303002865e-11 5.4933558933417916e-11 2.7132163695849534e-12
4.723288106065518 4.776363148554037e-19 5.988405616343974e-11 5.6913418149063927e-11 2.970638014375813e-12
4.867139040275056 4.815544132513977e-19 6.221406138559821e-11 5.898457268171765e-11 3.229488703880577e-12
4.940699165968905 4.838556251856884e-19 6.3456138207654e-11 6.009597808864301e-11 3.360160119011003e-12
5.015371051989984 4.859529311471864e-19 6.469440277076623e-11 6.12032320732847e-11 3.4911706974815254e-12
5.091171501069577 4.888176626188853e-19 6.60593125696866e-11 6.243378139368598e-11 3.625531176000628e-12
5.129500256944802 4.901661208573101e-19 6.674024237070991e-11 6.304759604871463e-11 3.6926463219952696e-12
5.168117569889187 4.915459698034516e-19 6.743198707866194e-11 6.367152887736724e-11 3.760458201294698e-12
5.20702561229733 4.936181199303699e-19 6.82260519349557e-11 6.439100171867918e-11 3.8350502162765125e-12
5.246226572918644 4.9565747863713635e-19 6.902368465116554e-11 6.51139083174023e-11 3.909776333763234e-12
5.265937586045735 4.96665369618222e-19 6.942390203556837e-11 6.54767249895228e-11 3.947177046045555e-12
5.285722656980489 4.97665686147968e-19 6.982508969618641e-11 6.584049362761318e-11 3.984596068573198e-12
5.305582063971359 4.986586500399075e-19 7.022727652003448e-11 6.620524824366582e-11 4.022028276368646e-12
5.3255160863122235 4.9978081065014155e-19 7.064976328265609e-11 6.658995280481194e-11 4.059810477844131e-12
5.365609099470188 5.030585222870884e-19 7.164847872066804e-11 6.751045128046722e-11 4.138027440200816e-12
5.406003951863644 5.063637375547494e-19 7.266217419956049e-11 6.844582168982341e-11 4.216352509737078e-12
5.446702915881641 5.097019899580484e-19 7.369184840542159e-11 6.939710388413571e-11 4.2947445212858776e-12
5.487708281020852 5.133367570812924e-19 7.47761003594754e-11 7.040255517635543e-11 4.373545183119952e-12
5.529022354014368 5.193052257083188e-19 7.621500311758524e-11 7.175931402974442e-11 4.4556890878408265e-12
5.570647458961463 5.254884417560574e-19 7.770308754511875e-11 7.316516636953317e-11 4.537921175585599e-12
5.612585937458331 5.319081870288702e-19 7.924449676227446e-11 7.462429713223302e-11 4.62019963004144e-12
5.654840148729818 5.389728604529373e-19 8.09015165877886e-11 7.619856803042545e-11 4.702948557363136e-12
5.67608639626678 5.443165115817661e-19 8.201059050073422e-11 7.726425243895577e-11 4.746338061778426e-12
5.686739436050992 5.470504352940482e-19 8.257719574804572e-11 7.780915273372932e-11 4.768043014316407e-12
5.6974124697621304 5.498272357066193e-19 8.31521233357724e-11 7.836236945528156e-11 4.7897538804908e-12
5.718818669136295 5.555140685212195e-19 8.432780990822468e-11 7.949461922295224e-11 4.833190685272436e-12
5.740305295436557 5.618649083078384e-19 8.561233309957021e-11 8.073532459411173e-11 4.877008505458467e-12
5.7835210386641895 5.791443271389761e-19 8.890958016234018e-11 8.394206667873782e-11 4.96751348360235e-12
5.827062130521658 5.988724596909171e-19 9.263037526263256e-11 8.75713401516689e-11 5.059035110963619e-12
5.8489554468988025 6.134489989848169e-19 9.524149599315335e-11 9.013274711516025e-11 5.108748877993077e-12
5.870931020387893 6.289079629160073e-19 9.800844626821424e-11 9.284989173502975e-11 5.15855453318451e-12
5.892989160043636 6.453196289356065e-19 1.0094386998318392e-10 9.573542336065676e-11 5.20844662252717e-12
5.915130176081913 6.640448053171336e-19 1.0426321763460662e-10 9.90029572963897e-11 5.2602603382168944e-12
5.95966208400165 7.177500373330508e-19 1.1354402686574949e-10 1.0816405034853781e-10 5.379976517211679e-12
6.004529249263818 7.956132129211204e-19 1.2680908961605e-10 1.2129345888123748e-10 5.515630734812511e-12
6.027089341400364 8.501710520572192e-19 1.3601392569491683e-10 1.3041909196091625e-10 5.594833734000553e-12
6.049734195844842 9.14201640962695e-19 1.4680732427417787e-10 1.4112841311100398e-10 5.67891116317392e-12
6.095279466722835 1.0997937502422576e-18 1.7794029373115437e-10 1.7205194274994295e-10 5.8883509812114186e-12
6.141167624020661 1.383663622414006e-18 2.2555419452239864e-10 2.193905819960862e-10 6.1636125263123754e-12
6.164241091010745 1.5645414170308866e-18 2.5599772959147955e-10 2.496597082141067e-10 6.338021377372812e-12
6.187401249150058 1.7679615897997293e-18 2.9036919404379786e-10 2.8385240410184276e-10 6.516789941955016e-12
6.1990139391386085 1.8665893785008974e-18 3.07143151546506e-10 3.0053545737022685e-10 6.6076941762791505e-12
6.204828454712694 1.918324889838838e-18 3.159521927630461e-10 3.092986182532211e-10 6.653574509824986e-12
6.210648424152782 1.955539779182297e-18 3.2238366847479785e-10 3.15691365986085e-10 6.692302488712744e-12
6.233982942956859 2.0796700764699565e-18 3.441355080922391e-10 3.373097131366949e-10 6.8257949555442384e-12
6.239830258556775 2.094188279519763e-18 3.4686296607210507e-10 3.4001980465123717e-10 6.843161420868033e-12
6.245683058788269 2.093245241150483e-18 3.47031971502591e-10 3.401714278692181e-10 6.860543633372837e-12
6.257405133728602 2.0847759311860374e-18 3.4627655774775154e-10 3.3938626490161034e-10 6.89029284614109e-12
6.269149208991335 2.0539851240869795e-18 3.4180257748907016e-10 3.349046264747646e-10 6.897951014305564e-12
6.280915325867298 1.9842649645040138e-18 3.3082021225243117e-10 3.239418754355388e-10 6.878336816892246e-12
6.304513850009849 1.815490199832594e-18 3.0381901058681907e-10 2.970045066625553e-10 6.814503924263792e-12
6.32820103803542 1.6106481612095542e-18 2.70551771425488e-10 2.638272707609203e-10 6.7245006645677684e-12
6.3519772230701035 1.4239502953963298e-18 2.40089515495261e-10 2.334466133319687e-10 6.6429021632922536e-12
6.375842739491607 1.2665929739189063e-18 2.1436017565046376e-10 2.0779021308822393e-10 6.569962562239766e-12
6.399797922933955 1.1413478906793213e-18 1.9388925178318035e-10 1.8736129889264694e-10 6.527952890533432e-12
6.42384311029221 1.0367779696408128e-18 1.7678691571114372e-10 1.7029476895261824e-10 6.492146758525503e-12
6.447978639727206 9.60408136545141e-19 1.6437995373822478e-10 1.5789958993187984e-10 6.480363806344929e-12
6.472204850670314 8.964020617451972e-19 1.5400135229008784e-10 1.4752802723391092e-10 6.473325056176895e-12
6.496522083828205 8.540803818025015e-19 1.4728180513956502e-10 1.4079613984216044e-10 6.485665297404581e-12
