Dust emission spectrum from A.P. Jones, M. Kohler, N. Ysard, M. Bocchio, and L. Verstraete (2017), A&A, 602A, 46J 
inside the DustPedia framework.

lambda    nu*dP/dnu     j_nu    j_nu(carb.) j_nu(sil)
 (um)   (erg s-1 H-1) (Jy cm2 sr-1 H-1)
0.9927057738263894 1.8534469283130732e-23 4.883937929788821e-16 4.883937929788821e-16 4.686851544697963e-32
1.0001793341362166 1.8840804195554802e-23 5.002035228262323e-16 5.002035228262321e-16 5.648611838996897e-32
1.0077091589558085 1.9146705910169348e-23 5.121518024980722e-16 5.121518024980722e-16 6.799208468263811e-32
1.0114953028030835 1.929945665007941e-23 5.181773021880283e-16 5.181773021880281e-16 7.456102279898276e-32
1.0152956718711033 1.94520540074741e-23 5.242367162151799e-16 5.242367162151798e-16 8.173883185790091e-32
1.0229392996569957 1.9756579303239405e-23 5.364522225558692e-16 5.364522225558692e-16 9.814208110899778e-32
1.0267826658714554 1.9908138062867454e-23 5.425985205409375e-16 5.425985205409374e-16 1.0749231637066217e-31
1.0306404723013447 2.005947643853204e-23 5.487774020824661e-16 5.48777402082466e-16 1.1769606867409867e-31
1.03451277320114 2.0210579827154827e-23 5.549886016038536e-16 5.549886016038536e-16 1.288275425048465e-31
1.0383996230291617 2.0361433706459604e-23 5.612318502016818e-16 5.612318502016818e-16 1.4096704567505835e-31
1.0403485208654093 2.0436762564687446e-23 5.643654079779191e-16 5.643654079779189e-16 1.474416885946233e-31
1.0423010764483396 2.0512023637757622e-23 5.675068757093286e-16 5.675068757093285e-16 1.5420146046866947e-31
1.0462171883269815 2.0662335268671623e-23 5.738134027606647e-16 5.738134027606647e-16 1.6862474857727455e-31
1.0471985131304309 2.0699868018480124e-23 5.753949240707501e-16 5.753949240707501e-16 1.7242806065868564e-31
1.048180758391296 2.073738226062398e-23 5.769783924541237e-16 5.769783924541236e-16 1.7631365127664998e-31
1.0501480137395462 2.0812354335798095e-23 5.801511528538007e-16 5.801511528538006e-16 1.8433849204763475e-31
1.0521189612883777 2.0887249725597433e-23 5.833316486674641e-16 5.833316486674639e-16 1.9271325436234986e-31
1.0531058218030118 2.0924610637013668e-23 5.849231796165627e-16 5.849231796165624e-16 1.9703664937217306e-31
1.0540936079674168 2.096176340871916e-23 5.865113592219158e-16 5.865113592219155e-16 2.014539462955848e-31
1.058054026499678 2.1110164006277034e-23 5.928828456002795e-16 5.928828456002793e-16 2.2009214544234626e-31
1.0590464539527713 2.1147210448057527e-23 5.944803865187497e-16 5.944803865187494e-16 2.2500395984395716e-31
1.06003981227728 2.118423497405803e-23 5.960797860620535e-16 5.9607978606205335e-16 2.3002082128653674e-31
1.0620293250338977 2.125821741643659e-23 5.992841427264924e-16 5.992841427264921e-16 2.4037828995180415e-31
1.0660195594769086 2.1405909849353176e-23 6.057149576875103e-16 6.057149576875101e-16 2.62450798374116e-31
1.070024785945596 2.1553227619201748e-23 6.121749948325663e-16 6.121749948325663e-16 2.864590580840977e-31
1.0740450607676866 2.1700157146428204e-23 6.186639558371756e-16 6.186639558371754e-16 3.1256423843957156e-31
1.07808044048254 2.1846684959939025e-23 6.251815397670241e-16 6.251815397670238e-16 3.409401597200177e-31
1.0861967418109137 2.2138223293841358e-23 6.382938975706586e-16 6.382938975706582e-16 4.052684515120468e-31
1.0902777775684922 2.228261886275037e-23 6.448709674792479e-16 6.448709674792474e-16 4.416405415594131e-31
1.0943741465085532 2.2426549663448055e-23 6.514749482605198e-16 6.514749482605193e-16 4.811247284409614e-31
1.1026131145906286 2.2712965788758434e-23 6.6476237921519625e-16 6.647623792151957e-16 5.7045791943449905e-31
1.1109141095355224 2.2997370561366262e-23 6.78153642696745e-16 6.781536426967443e-16 6.755258360020275e-31
1.1192775983109025 2.3279400960915798e-23 6.916383170289915e-16 6.916383170289906e-16 7.989402480510256e-31
1.1277040513999907 2.3557747603454574e-23 7.051773235383668e-16 7.051773235383659e-16 9.437184068726344e-31
1.1361939428280308 2.38337541798908e-23 7.188104106942844e-16 7.188104106942833e-16 1.1133407365612623e-30
1.1447477501889525 2.4107328618660127e-23 7.32534898657083e-16 7.325348986570819e-16 1.3118172801641953e-30
1.1533659546722406 2.4378529981837875e-23 7.46352642760231e-16 7.463526427602294e-16 1.5437643228264568e-30
1.1707974979042381 2.491468844820667e-23 7.742954005527372e-16 7.742954005527351e-16 2.1300905667227756e-30
1.1884924949847024 2.544019939924573e-23 8.025764048314653e-16 8.025764048314624e-16 2.9247671728196245e-30
1.2064549276569216 2.595916881278384e-23 8.313259117450614e-16 8.313259117450576e-16 3.996589169954148e-30
1.2246888378427687 2.646593168327258e-23 8.603642966177799e-16 8.603642966177743e-16 5.435080313126769e-30
1.2431983285522175 2.6959302181283716e-23 8.89648595111185e-16 8.896485951111775e-16 7.356352125288625e-30
1.2619875648066055 2.743909500963949e-23 9.191667209765409e-16 9.191667209765312e-16 9.910231753398133e-30
1.3004222497298317 2.8349973643091834e-23 9.78602867551619e-16 9.78602867551601e-16 1.7738108067225648e-29
1.3400274889804893 2.9194996776086124e-23 1.0384643025181498e-15 1.0384643025181187e-15 3.1179927055566665e-29
1.3808389325824078 2.9971024082563124e-23 1.0985353560291007e-15 1.098535356029047e-15 5.385036373577413e-29
1.4228933163050095 3.0681818347163953e-23 1.1588383705335715e-15 1.15883837053348e-15 9.142493405387697e-29
1.466228494730424 3.1344457048437555e-23 1.2199213717092266e-15 1.2199213717090741e-15 1.526603727175507e-28
1.5108834753276823 3.194606456465491e-23 1.2812024763541168e-15 1.2812024763538661e-15 2.508276515000089e-28
1.5568984535646726 3.2476219491180816e-23 1.3421318671925023e-15 1.3421318671920962e-15 4.059506185426352e-28
1.6043148490894465 3.2935878452754365e-23 1.4025820854185377e-15 1.4025820854178892e-15 6.483685318323019e-28
1.6531753430134553 3.3326426519074003e-23 1.4624367783367577e-15 1.4624367783357365e-15 1.0208640648997678e-27
1.7035239163302658 3.365248526347206e-23 1.521720218463225e-15 1.5217202184616396e-15 1.5850997676577849e-27
1.755405889504358 3.3940806106120234e-23 1.5814997839098737e-15 1.5814997839074458e-15 2.428605126584596e-27
1.8088679632656115 3.4184774040304095e-23 1.641379532875177e-15 1.6413795328715037e-15 3.6735831153784736e-27
1.8639582606462262 3.4379905294836844e-23 1.7010234160795496e-15 1.7010234160740605e-15 5.4892507970751235e-27
1.9207263702978936 3.452943806631707e-23 1.7604530316691175e-15 1.7604530316610098e-15 8.107722401056336e-27
1.979223391128241 3.4640920126970007e-23 1.8199257387993963e-15 1.8199257387875515e-15 1.1845399873412717e-26
2.039501978296691 3.4723386722674226e-23 1.879817295914032e-15 1.879817295896901e-15 1.7131183444148366e-26
2.1016163906111602 3.48021588955926e-23 1.941462763947544e-15 1.9414627639229975e-15 2.4546701542083623e-26
2.1656225393682647 3.4891917595277385e-23 2.0057510767256243e-15 2.0057510766907456e-15 3.487846636121132e-26
2.231578038680979 3.499370973559044e-23 2.0728672832388047e-15 2.0728672831896133e-15 4.9191809201672935e-26
2.299542257339062 3.51163243320742e-23 2.143482189739502e-15 2.143482189670566e-15 6.893614381490351e-26
2.369576372248914 3.5279201150180914e-23 2.219008093856735e-15 2.2190080937606385e-15 9.6096511321026e-26
2.4417434235010123 3.5505295554381527e-23 2.3012435904807626e-15 2.3012435903473568e-15 1.334056312108515e-25
2.5161083711144245 3.583392368429984e-23 2.3932779532245317e-15 2.393277953039875e-15 1.8465661638810565e-25
2.5927381535095444 3.632942564737738e-23 2.5002683512645407e-15 2.500268351009395e-15 2.55145172216177e-25
2.6717017477616296 3.706861413929114e-23 2.6288375966617165e-15 2.628837596309441e-15 3.52275233379341e-25
2.753070231689431 3.8167139846529023e-23 2.7891786985405252e-15 2.7891786980541065e-15 4.864191092784276e-25
2.836916847834745 3.988702881893749e-23 3.0036389433789613e-15 3.003638942706776e-15 6.7218515910541755e-25
2.9233170693905177 4.2805383752192165e-23 3.321572608127619e-15 3.321572607197589e-15 9.30029420552379e-25
2.967498994190263 4.528376226646338e-23 3.5669951203042075e-15 3.5669951192104905e-15 1.0937191463120342e-24
3.0123486681368425 4.81781937654032e-23 3.852345103022305e-15 3.8523451017350645e-15 1.2872404454322187e-24
3.0578761833420214 5.465477174570198e-23 4.436264321058838e-15 4.436264319541624e-15 1.5172135926321834e-24
3.1040917844459814 6.3000439810742e-23 5.190958641900011e-15 5.190958640110793e-15 1.789217019479246e-24
3.127460860933648 7.182925738212712e-23 5.962970939829293e-15 5.962970937884001e-15 1.945292408637438e-24
3.1510058709225794 8.35923851228672e-23 6.991741489188786e-15 6.99174148707271e-15 2.116075508293257e-24
3.162844764501044 9.454225635738514e-23 7.937308728792141e-15 7.937308726582253e-15 2.209884780521786e-24
3.1747281389236908 1.0727595808026962e-22 9.040207028150135e-15 9.040207025842152e-15 2.3079837079514294e-24
3.1986289994194426 1.427937093095354e-22 1.2123900923584658e-14 1.212390092106369e-14 2.5209705270370076e-24
3.2227097969389145 2.2651827652762936e-22 1.9377327570041363e-14 1.9377327567262364e-14 2.778992043029914e-24
3.2348180950136065 3.0591544513921847e-22 2.6267618562128404e-14 2.6267618559190592e-14 2.9378118946964365e-24
3.240889293275058 3.6527526061604148e-22 3.1423451708749074e-14 3.142345170571689e-14 3.0321844332731526e-24
3.2469718861334385 4.339455076754557e-22 3.740099517314495e-14 3.740099517000767e-14 3.137286293197616e-24
3.2714166318528037 8.00244405308566e-22 6.949090008227485e-14 6.94909000786629e-14 3.6119454879232626e-24
3.2744851364798273 8.231431369383977e-22 7.154640523435552e-14 7.15464052306923e-14 3.663207121713613e-24
3.2775565192852394 8.466995861630197e-22 7.366292675002189e-14 7.366292674630662e-14 3.715271257550698e-24
3.283707930232385 8.240464752967927e-22 7.18266581987359e-14 7.182665819495419e-14 3.781703285272474e-24
3.2898708863219004 7.52205116030135e-22 6.56877777907046e-14 6.568777778688639e-14 3.818207989586554e-24
3.29141343181113 7.352631132116118e-22 6.423839017630702e-14 6.423839017247963e-14 3.827377002110108e-24
3.292184975758714 7.269384105634238e-22 6.352596613656042e-14 6.352596613272845e-14 3.8319679551656045e-24
3.295272960557952 6.743920368371009e-22 5.898930254335408e-14 5.898930253951017e-14 3.8439113761691244e-24
3.3076538914384823 4.923546623264685e-22 4.322823931653915e-14 4.322823931265057e-14 3.888578812766812e-24
3.310756385682612 4.553052686542413e-22 4.0012836020028237e-14 4.0012836016128386e-14 3.899845552166738e-24
3.313861789986515 4.2112138383981444e-22 3.704342371680744e-14 3.7043423712896296e-14 3.911152817004958e-24
3.3200813396944477 3.731823126275533e-22 3.2888132124905006e-14 3.288813212095277e-14 3.952244499108726e-24
3.345076488085796 2.8766356397734404e-22 2.55423200617283e-14 2.5542320057497436e-14 4.230855021064468e-24
3.3482140837626964 2.9087043247609315e-22 2.585129053240971e-14 2.5851290528130577e-14 4.279134306099129e-24
3.3513546224236106 2.941127565770898e-22 2.6163972238151292e-14 2.6163972233823317e-14 4.32797883718672e-24
3.3576445397418455 3.1780840004818757e-22 2.8324974151945257e-14 2.8324974147500878e-14 4.4443845431452576e-24
3.3702598118196083 4.0520793468454643e-22 3.625022911346724e-14 3.6250229108748874e-14 4.718362926329151e-24
3.382922481734668 4.25114415669766e-22 3.8173968557608125e-14 3.817396855265718e-14 4.950943690757064e-24
3.389271646505754 4.354273632293022e-22 3.9173423628826013e-14 3.917342362375436e-14 5.071653987148359e-24
3.395632727569191 4.465401343721526e-22 4.024858739170967e-14 4.0248587386508845e-14 5.200827807208869e-24
3.421196662673239 4.998997729695783e-22 4.539734058666829e-14 4.539734058090576e-14 5.7625504353201215e-24
3.4276182099114902 4.891470331440427e-22 4.450423069814466e-14 4.450423069227688e-14 5.867778802633144e-24
3.4340518103208963 4.420279293524638e-22 4.0292664454230645e-14 4.029266444827872e-14 5.951922506965507e-24
3.4469541582030403 3.7492143214178286e-22 3.430403509728982e-14 3.430403509119994e-14 6.089874630232679e-24
3.472904465399547 3.561140624803383e-22 3.2828526762687527e-14 3.2828526756113614e-14 6.573913203641346e-24
3.4990501388274233 3.2734898819208656e-22 3.040399144027919e-14 3.0403991433198835e-14 7.080352586007314e-24
3.5253949054701885 2.2498052593396644e-22 2.105339473931382e-14 2.1053394731822327e-14 7.49149905288233e-24
3.5519380250092896 1.2876479676997338e-22 1.2140371018385636e-14 1.2140371010497915e-14 7.887718959471826e-24
3.578680990867387 9.061314326769402e-23 8.607630491825186e-15 8.607630483375474e-15 8.449709665753568e-24
3.605625307711299 7.518007325905186e-23 7.195364033426373e-15 7.195364024308194e-15 9.118179194962726e-24
3.660119384959845 6.391795510023144e-23 6.209942182767576e-15 6.209942172090257e-15 1.0677318564948341e-23
3.715437065384467 5.594006846123355e-23 5.516991767695987e-15 5.516991755201008e-15 1.2494980009246395e-23
3.8285932144167436 5.1879822889860486e-23 5.272385331992094e-15 5.2723853148535935e-15 1.7138500481032513e-23
3.94519561050918 5.1086262992684256e-23 5.349856205200425e-15 5.34985618176298e-15 2.3437445133994232e-23
4.06534921144712 5.163318908867181e-23 5.571809250423715e-15 5.5718092184970885e-15 3.19266262449176e-23
4.189162171576248 5.295546374408528e-23 5.8885366419421675e-15 5.888536598642095e-15 4.330007269507526e-23
4.316745939156006 5.484213055362175e-23 6.284058805531554e-15 6.2840587470859084e-15 5.844564709676954e-23
4.448215356677963 5.722189339358003e-23 6.756432807134362e-15 6.756432728651021e-15 7.848333959064897e-23
4.58368876423945 6.010248237459239e-23 7.312686643977075e-15 7.312686539127231e-15 1.0484984212599518e-22
4.723288106065518 6.35500288729226e-23 7.967638514601649e-15 7.967638375233338e-15 1.393683124566637e-22
4.867139040275056 6.76977069822455e-23 8.74615449876253e-15 8.74615431445736e-15 1.8430516924633388e-22
4.940699165968905 7.020226845663084e-23 9.206805951600126e-15 9.206805740004252e-15 2.1159587559806762e-22
5.015371051989984 7.279479945225863e-23 9.691095111339447e-15 9.691094868751345e-15 2.425880971410957e-22
5.091171501069577 7.5962667243491e-23 1.0265671563871586e-14 1.0265671285925521e-14 2.779460635512585e-22
5.129500256944802 7.758803625821695e-23 1.0564264082315555e-14 1.0564263784964419e-14 2.9735113814414452e-22
5.168117569889187 7.928262913589656e-23 1.0876267026646229e-14 1.0876266708624337e-14 3.1802188950337646e-22
5.20702561229733 8.136593847634543e-23 1.1246095959780853e-14 1.1246095619539714e-14 3.402411396623963e-22
5.246226572918644 8.350217172410091e-23 1.1628246959209674e-14 1.1628246595330865e-14 3.6387880545632914e-22
5.265937586045735 8.459066241999094e-23 1.1824085632311067e-14 1.1824085256056342e-14 3.762547217142436e-22
5.285722656980489 8.569302647772038e-23 1.2023178263420507e-14 1.2023177874404548e-14 3.8901595567022647e-22
5.305582063971359 8.680948786015013e-23 1.2225585393995367e-14 1.2225584991822094e-14 4.0217327626084817e-22
5.3255160863122235 8.800957147231267e-23 1.2441164723868399e-14 1.244116430807685e-14 4.157915496591451e-22
5.365609099470188 9.10035250064766e-23 1.2961243744144935e-14 1.2961243299407865e-14 4.447370696922344e-22
5.406003951863644 9.411148198856757e-23 1.3504807693091797e-14 1.3504807217570316e-14 4.755214770411156e-22
5.446702915881641 9.733896863663439e-23 1.4073102836622904e-14 1.4073102328373647e-14 5.082492528553669e-22
5.487708281020852 1.0082751106903931e-22 1.4687216496169665e-14 1.4687215952997147e-14 5.431725153970176e-22
5.529022354014368 1.0568575841473309e-22 1.551080175647501e-14 1.5510801174893024e-14 5.815819839664135e-22
5.570647458961463 1.108311047933762e-22 1.6388408105995548e-14 1.6388407483524293e-14 6.224712557244826e-22
5.612585937458331 1.1628427185834603e-22 1.732420900729996e-14 1.732420834131646e-14 6.659835000396214e-22
5.654840148729818 1.2228056882807432e-22 1.8354696856341066e-14 1.8354696143789573e-14 7.125514898121315e-22
5.67608639626678 1.2636963543141551e-22 1.9039746549257647e-14 1.9039745811065786e-14 7.381918607853564e-22
5.686739436050992 1.2847752159923178e-22 1.9393666042182853e-14 1.9393665290854744e-14 7.513281121190331e-22
5.6974124697621304 1.3062899295392613e-22 1.9755438486733073e-14 1.975543772205385e-14 7.646792263182871e-22
5.718818669136295 1.3506689690180742e-22 2.0503343213519945e-14 2.05033424214812e-14 7.920387430175305e-22
5.740305295436557 1.3996032336873793e-22 2.132599784716042e-14 2.132599702643824e-14 8.207221854837734e-22
5.7835210386641895 1.5266449859365268e-22 2.3436880652374355e-14 2.343687976791809e-14 8.844562668463959e-22
5.827062130521658 1.673043371483266e-22 2.587773620632656e-14 2.5877735252644083e-14 9.536824847214491e-22
5.8489554468988025 1.7758130843684854e-22 2.757052257634483e-14 2.7570521581992316e-14 9.943525174689927e-22
5.870931020387893 1.886111600989967e-22 2.939299204360189e-14 2.9392991006958213e-14 1.0366436692387237e-21
5.892989160043636 2.0045453359292365e-22 3.135602183668116e-14 3.1356020756065845e-14 1.0806153074553364e-21
5.915130176081913 2.1392654808338634e-22 3.3589104322540425e-14 3.3589103194661206e-14 1.1278792123109282e-21
5.95966208400165 2.516094049712649e-22 3.980319547441006e-14 3.980319423143304e-14 1.2429770227261589e-21
6.004529249263818 3.0594189938713207e-22 4.87626564096966e-14 4.876265502100436e-14 1.3886922597274577e-21
6.027089341400364 3.437178410321705e-22 5.4989419807980506e-14 5.498941832641074e-14 1.481569755818758e-21
6.049734195844842 3.883641328310322e-22 6.236556207112713e-14 6.236556048551076e-14 1.5856163699777323e-21
6.095279466722835 5.173480455614093e-22 8.370393373135451e-14 8.370393186346574e-14 1.867888817045879e-21
6.141167624020661 7.158783653336424e-22 1.1669698144346232e-13 1.1669697916518868e-13 2.278273637052984e-21
6.164241091010745 8.426630936975047e-22 1.3788055493377504e-13 1.3788055238546058e-13 2.548314424967479e-21
6.187401249150058 9.871001315786939e-22 1.621208691980125e-13 1.6212086635138054e-13 2.8466319660791382e-21
6.1990139391386085 1.057624905096603e-21 1.7402983765306413e-13 1.7402983465278046e-13 3.0002836671799135e-21
6.204828454712694 1.0947757395138282e-21 1.8031189467193894e-13 1.8031189159172697e-13 3.0802119851402183e-21
6.210648424152782 1.1218934045007608e-21 1.8495154904589616e-13 1.8495154589922694e-13 3.1466691482450236e-21
6.233982942956859 1.2140212378754983e-21 2.0089139150389138e-13 2.008913881210438e-13 3.3828475044198127e-21
6.239830258556775 1.2257956538172848e-21 2.0303003337353287e-13 2.030300299579885e-13 3.4155443971553014e-21
6.245683058788269 1.226811723518627e-21 2.0338892104260325e-13 2.0338891759407014e-13 3.4485331401537835e-21
6.257405133728602 1.2242692780078363e-21 2.033483526950064e-13 2.0334834918875382e-13 3.506252555029171e-21
6.269149208991335 1.2061343356837589e-21 2.007121764905822e-13 2.007121729656646e-13 3.524917630819432e-21
6.280915325867298 1.1606737409819408e-21 1.9350960694074802e-13 1.9350960344573504e-13 3.495012977985078e-21
6.304513850009849 1.0485721912130246e-21 1.7547666503105877e-13 1.7547666164110263e-13 3.389956110076172e-21
6.32820103803542 9.096243550994184e-22 1.5279592808096572e-13 1.527959248526775e-13 3.2282882504436282e-21
6.3519772230701035 7.821976735760072e-22 1.3188484252402502e-13 1.3188483944873087e-13 3.0752941782782274e-21
6.375842739491607 6.749973887509694e-22 1.1423761365782383e-13 1.1423761071693013e-13 2.940893661164774e-21
6.399797922933955 5.890708008607593e-22 1.0006983651429177e-13 1.0006983366409208e-13 2.8501997195803287e-21
6.42384311029221 5.176311222517976e-22 8.826423039322164e-14 8.826422761972671e-14 2.7734949522681583e-21
6.447978639727206 4.655631420893175e-22 7.968408934368453e-14 7.968408660602392e-14 2.7376605883648664e-21
6.472204850670314 4.2218672799585893e-22 7.253143405728907e-14 7.253143134524454e-14 2.7120445378536428e-21
6.496522083828205 3.939860018963166e-22 6.794087628678001e-14 6.794087356469775e-14 2.7220822579472914e-21
