Dust emission spectrum from A.P. Jones, M. Kohler, N. Ysard, M. Bocchio, and L. Verstraete (2017), A&A, 602A, 46J 
inside the DustPedia framework.

lambda    nu*dP/dnu     j_nu    j_nu(carb.) j_nu(sil)
 (um)   (erg s-1 H-1) (Jy cm2 sr-1 H-1)
0.9927057738263894 4.0767094009731527e-22 1.0742360824035583e-14 1.0742360189110761e-14 6.3492482159347515e-22
1.0001793341362166 4.1452530256653864e-22 1.100521052563737e-14 1.1005209761564699e-14 7.640726717011732e-22
1.0077091589558085 4.2140691460263954e-22 1.1272137980886972e-14 1.1272137062621949e-14 9.18265021836317e-22
1.0114953028030835 4.248576249143302e-22 1.1407138650777249e-14 1.1407137644616649e-14 1.0061606019961849e-21
1.0152956718711033 4.283147758909208e-22 1.1543168219316177e-14 1.1543167117214876e-14 1.1021013036661735e-21
1.0229392996569957 4.352445599505e-22 1.1818235735905601e-14 1.181823441491316e-14 1.3209924397403085e-21
1.0267826658714554 4.387093228060531e-22 1.1957071462452706e-14 1.1957070016886903e-14 1.44556579968299e-21
1.0306404723013447 4.421798960273777e-22 1.2096942576670616e-14 1.209694099531186e-14 1.5813587589521893e-21
1.03451277320114 4.456561735566275e-22 1.2237852583823464e-14 1.2237850854492991e-14 1.7293304730481907e-21
1.0383996230291617 4.491380526414924e-22 1.2379805072370548e-14 1.2379803181853175e-14 1.8905173752706836e-21
1.0403485208654093 4.508810615818459e-22 1.2451173392249437e-14 1.2451171415836475e-14 1.9764129611075496e-21
1.0423010764483396 4.526254339197007e-22 1.2522803717792e-14 1.2522801651753007e-14 2.0660389928022395e-21
1.0462171883269815 4.561182215030437e-22 1.266685228647103e-14 1.2666850029366865e-14 2.257104166939618e-21
1.0471985131304309 4.5699225223470365e-22 1.270302892949631e-14 1.2703026622046472e-14 2.307449839956375e-21
1.048180758391296 4.578666136645776e-22 1.2739271494851262e-14 1.2739269135981861e-14 2.358869399722442e-21
1.0501480137395462 4.596163230608849e-22 1.2811954639632184e-14 1.2811952174614476e-14 2.4650177029748455e-21
1.0521189612883777 4.613673387201169e-22 1.2884902218941045e-14 1.288489964321271e-14 2.5757283375505813e-21
1.0531058218030118 4.622421732825813e-22 1.2921442909482276e-14 1.2921440276626005e-14 2.6328562656252315e-21
1.0540936079674168 4.631135309198482e-22 1.2957943527827367e-14 1.2957940836619225e-14 2.6912081411862534e-21
1.058054026499678 4.666020075910838e-22 1.3104603353206873e-14 1.310460041597886e-14 2.9372280131872513e-21
1.0590464539527713 4.674748820345456e-22 1.3141432967828173e-14 1.3141429965814111e-14 3.0020140644888276e-21
1.06003981227728 4.683480561396537e-22 1.3178328575385197e-14 1.3178325507219745e-14 3.0681654528760326e-21
1.0620293250338977 4.700952985606538e-22 1.3252318032077935e-14 1.3252314827403857e-14 3.2046740763253357e-21
1.0660195594769086 4.735933276985231e-22 1.3401091776375311e-14 1.3401088281062351e-14 3.495312963563259e-21
1.070024785945596 4.770960228803067e-22 1.355092891429348e-14 1.35509251032453e-14 3.811048179519809e-21
1.0740450607676866 4.8060331606640925e-22 1.3701833894555431e-14 1.3701829740625462e-14 4.1539299702933e-21
1.07808044048254 4.841151433803795e-22 1.3853811290732509e-14 1.3853806764566665e-14 4.526165847224245e-21
1.0861967418109137 4.911467904336886e-22 1.4160847281382793e-14 1.416084191299792e-14 5.368384869058408e-21
1.0902777775684922 4.946542815417726e-22 1.4315560799670834e-14 1.4315554955995264e-14 5.8436755747748386e-21
1.0943741465085532 4.98165883534094e-22 1.4471356408849917e-14 1.4471350049890934e-14 6.3589589883501e-21
1.1026131145906286 5.052012612382333e-22 1.4786214866288663e-14 1.478620734383838e-14 7.522450276705396e-21
1.1109141095355224 5.122526526033087e-22 1.5105466140880675e-14 1.510545725366555e-14 8.887215120468372e-21
1.1192775983109025 5.193143410446207e-22 1.5428992243062915e-14 1.5428981757122062e-14 1.0485940853224198e-20
1.1277040513999907 5.263608280514965e-22 1.5756078475276742e-14 1.5756066119022184e-14 1.2356254556789866e-20
1.1361939428280308 5.334221637618514e-22 1.60876629721473e-14 1.6087648430737436e-14 1.4541409860018105e-20
1.1447477501889525 5.404984045316753e-22 1.642380000915803e-14 1.6423782918097234e-14 1.7091060796877757e-20
1.1533659546722406 5.475922101465434e-22 1.676462417964782e-14 1.6764604117487586e-14 2.0062160231408906e-20
1.1707974979042381 5.61854122834989e-22 1.746122830301891e-14 1.7461200763916127e-14 2.753910278361814e-20
1.1884924949847024 5.761889135735228e-22 1.817735857735834e-14 1.817732096428953e-14 3.76130688023768e-20
1.2064549276569216 5.906937309958084e-22 1.8916591976564212e-14 1.8916540858299277e-14 5.1118264933407984e-20
1.2246888378427687 6.052750842643443e-22 1.9676506323882684e-14 1.9676437192052983e-14 6.91318297021055e-20
1.2431983285522175 6.19921603691918e-22 2.0457220298026517e-14 2.0457127258369915e-14 9.303965660257629e-20
1.2619875648066055 6.346552021904786e-22 2.125995558319947e-14 2.1259830967374768e-14 1.2461582470428897e-19
1.3004222497298317 6.642959117228572e-22 2.29305992414287e-14 2.2930378837416412e-14 2.2040401228108347e-19
1.3400274889804893 6.942925863655704e-22 2.469594608875655e-14 2.4695563419538985e-14 3.826692175686383e-19
1.3808389325824078 7.247634615831558e-22 2.6564934355057462e-14 2.65642818414546e-14 6.525136028598589e-19
1.4228933163050095 7.559745936277935e-22 2.8552817708908325e-14 2.855172442490336e-14 1.0932840049668307e-18
1.466228494730424 7.884809590616377e-22 3.06875557505638e-14 3.0685754926787795e-14 1.8008237759959705e-18
1.5108834753276823 8.222356448612417e-22 3.29759035642964e-14 3.297298616602596e-14 2.9173982704531334e-18
1.5568984535646726 8.572328757864747e-22 3.542652372178149e-14 3.5421870377099986e-14 4.653344681503393e-18
1.6043148490894465 8.937044354131948e-22 3.8058612360005485e-14 3.805129099026297e-14 7.321369742514193e-18
1.6531753430134553 9.319003058298958e-22 4.089383181268783e-14 4.088248272259056e-14 1.1349090097268897e-17
1.7035239163302658 9.721151637336894e-22 4.395774302392842e-14 4.394040608060083e-14 1.7336943327588784e-17
1.755405889504358 1.0151287822064042e-21 4.730076076215026e-14 4.727464857929911e-14 2.611218285113683e-17
1.8088679632656115 1.0609989637124657e-21 5.0943790980925325e-14 5.0905000457430657e-14 3.8790523494660524e-17
1.8639582606462262 1.1097751927004683e-21 5.490863262067196e-14 5.485177465612033e-14 5.685796455161741e-17
1.9207263702978936 1.1616738971417706e-21 5.922692197035912e-14 5.91446594199556e-14 8.226255040349835e-17
1.979223391128241 1.2169934083850945e-21 6.39370322656313e-14 6.381950890180966e-14 1.1752336382165692e-16
2.039501978296691 1.2760168432785091e-21 6.907962495220085e-14 6.891377693704923e-14 1.6584801515162354e-16
2.1016163906111602 1.3394230396810845e-21 7.472065065031304e-14 7.44893709193209e-14 2.3127973099215996e-16
2.1656225393682647 1.4076115965271856e-21 8.091611668050061e-14 8.059729104480315e-14 3.188256356974552e-16
2.231578038680979 1.4805704162652793e-21 8.77022184728873e-14 8.726761811000064e-14 4.346003628866682e-16
2.299542257339062 1.5585046282363931e-21 9.513031266202495e-14 9.454433849093683e-14 5.859741710880994e-16
2.369576372248914 1.6417745278626176e-21 1.0326512071819646e-13 1.0248339197319393e-13 7.817287450025519e-16
2.4417434235010123 1.7307925677665083e-21 1.1217975349406434e-13 1.1114758466162875e-13 1.0321688324355603e-15
2.5161083711144245 1.8262739871962474e-21 1.21973281759799e-13 1.2062400962518746e-13 1.3492721346115453e-15
2.5927381535095444 1.92931599939766e-21 1.3277963102701894e-13 1.3103286229931463e-13 1.7467687277043227e-15
2.6717017477616296 2.040885311698742e-21 1.447358139073638e-13 1.4249571773927887e-13 2.240096168084932e-15
2.753070231689431 2.162325044778509e-21 1.58018415277334e-13 1.5517201711105505e-13 2.8463981662789354e-15
2.836916847834745 2.2970368227656666e-21 1.7297526187156652e-13 1.6939067714578869e-13 3.584584725777816e-15
2.9233170693905177 2.4522732611308674e-21 1.902892341526766e-13 1.8581494193802396e-13 4.474292214652624e-15
2.967498994190263 2.544089940706567e-21 2.0039758072036349e-13 1.954249260642067e-13 4.972654656156736e-15
3.0123486681368425 2.6421605780983256e-21 2.1126807729651472e-13 2.0574874245579761e-13 5.519334840717147e-15
3.0578761833420214 2.7892610378328048e-21 2.2640107769236625e-13 2.202810785237938e-13 6.1199991685724515e-15
3.1040917844459814 2.958485819658334e-21 2.4376619557940813e-13 2.369936481839154e-13 6.77254739549273e-15
3.127460860933648 3.104044261195341e-21 2.576850492409139e-13 2.505635488762096e-13 7.121500364704385e-15
3.1510058709225794 3.28539631256581e-21 2.747934715970972e-13 2.673085557542035e-13 7.484915842893749e-15
3.162844764501044 3.4434123851639515e-21 2.890921820003486e-13 2.8141932012385697e-13 7.672861876491634e-15
3.1747281389236908 3.621296132811698e-21 3.0516871941019097e-13 2.97304175914942e-13 7.864543495248984e-15
3.1986289994194426 4.097696507259708e-21 3.479149516400867e-13 3.3965465872304363e-13 8.26029291704298e-15
3.2227097969389145 5.179923407784537e-21 4.4311246844632867e-13 4.3443314941034624e-13 8.67931903598256e-15
3.2348180950136065 6.188157953727344e-21 5.313500031250046e-13 5.224471492349996e-13 8.902853890005081e-15
3.240889293275058 6.93928041371896e-21 5.969638967780397e-13 5.87943133714662e-13 9.02076306337754e-15
3.2469718861334385 7.809081737346815e-21 6.730509319700977e-13 6.639081679743019e-13 9.142763995795812e-15
3.2714166318528037 1.236704820506865e-20 1.0739185496707436e-12 1.0642718803543518e-12 9.64666931639223e-15
3.2744851364798273 1.2652987722520312e-20 1.0997793049552115e-12 1.0900733250540902e-12 9.70597990112132e-15
3.2775565192852394 1.2946515891652949e-20 1.126347842115525e-12 1.1165822619356172e-12 9.765580179907687e-15
3.283707930232385 1.2671148695160573e-20 1.1044598740439503e-12 1.094587857614697e-12 9.872016429253152e-15
3.2898708863219004 1.1786157481418703e-20 1.0292491730602187e-12 1.0192804300456567e-12 9.968743014562224e-15
3.29141343181113 1.1577058180336796e-20 1.011463198845723e-12 1.0014701707694676e-12 9.993028076255419e-15
3.292184975758714 1.147425500099911e-20 1.0027164943324072e-12 9.927113081975488e-13 1.0005186134858588e-14
3.295272960557952 1.0832112442573361e-20 9.474885869877717e-13 9.374361340587377e-13 1.0052452929034302e-14
3.3076538914384823 8.5916694251819e-21 7.543398498257487e-13 7.440976190465805e-13 1.0242230779168615e-14
3.310756385682612 8.131274871028677e-21 7.145873119586532e-13 7.042972601925887e-13 1.0290051766064483e-14
3.313861789986515 7.704775771751208e-21 6.77741108640867e-13 6.674030850851128e-13 1.0338023555754503e-14
3.3200813396944477 7.110626451114568e-21 6.266514095176169e-13 6.162101400358026e-13 1.0441269481814443e-14
3.345076488085796 6.084543465766553e-21 5.4026083277042e-13 5.293592898058979e-13 1.0901542964521998e-14
3.3482140837626964 6.129606940928805e-21 5.447726279034892e-13 5.338087266736443e-13 1.0963901229844895e-14
3.3513546224236106 6.17506385226937e-21 5.493274112958777e-13 5.383008782758664e-13 1.1026533020011526e-14
3.3576445397418455 6.481240279588625e-21 5.776466681310465e-13 5.664891626375902e-13 1.1157505493456416e-14
3.3702598118196083 7.581939094753136e-21 6.782863951643083e-13 6.668541823652905e-13 1.1432212799017776e-14
3.382922481734668 7.8528164688302e-21 7.051587947152999e-13 6.934597823724193e-13 1.1699012342880697e-14
3.389271646505754 7.99233032302623e-21 7.190336849835102e-13 7.071994829256768e-13 1.1834202057833054e-14
3.395632727569191 8.145453190202926e-21 7.341848119249548e-13 7.222112887106566e-13 1.197352321429828e-14
3.421196662673239 8.88436493762336e-21 8.068148112443459e-13 7.942647931687548e-13 1.2550018075591191e-14
3.4276182099114902 8.759950725985286e-21 7.970095729862592e-13 7.843311315044287e-13 1.2678441481830816e-14
3.4340518103208963 8.177281058517425e-21 7.453928133488022e-13 7.325930180653539e-13 1.2799795283448192e-14
3.4469541582030403 7.343776148347053e-21 6.719305250180227e-13 6.588980345869513e-13 1.3032490431071285e-14
3.472904465399547 7.130673679238147e-21 6.573441949594045e-13 6.437753345222004e-13 1.3568860437203999e-14
3.4990501388274233 6.798057560118602e-21 6.313997944819911e-13 6.172825750827854e-13 1.4117219399205669e-14
3.5253949054701885 5.564740673086307e-21 5.207414354022237e-13 5.060923145623485e-13 1.4649120839875335e-14
3.5519380250092896 4.391753008923898e-21 4.140690024517688e-13 3.988859410872337e-13 1.518306136453508e-14
3.578680990867387 3.949174249676334e-21 3.751446143813915e-13 3.5937643108705227e-13 1.5768183294339283e-14
3.605625307711299 3.7941785322253704e-21 3.631347319003291e-13 3.4675071770129853e-13 1.6384014199030552e-14
3.660119384959845 3.730907767310431e-21 3.6247595042589757e-13 3.4480002003493245e-13 1.7675930390965107e-14
3.715437065384467 3.705769993593087e-21 3.6547510773598794e-13 3.464400258641639e-13 1.903508187182416e-14
3.8285932144167436 3.807443285485058e-21 3.869386403535039e-13 3.649922169586144e-13 2.194642339488949e-14
3.94519561050918 3.9495852201077746e-21 4.1360850764886277e-13 3.885022013562059e-13 2.5106306292656944e-14
4.06534921144712 4.1072220660424754e-21 4.4321604582314483e-13 4.14708690856979e-13 2.850735496616596e-14
4.189162171576248 4.272476489020343e-21 4.750904359749421e-13 4.429383610470105e-13 3.21520749279316e-14
4.316745939156006 4.441455236653119e-21 5.089219840205693e-13 4.728995989674138e-13 3.602238505315559e-14
4.448215356677963 4.611683267721154e-21 5.445210963543478e-13 5.044617326437478e-13 4.005936371059983e-14
4.58368876423945 4.78212398826312e-21 5.818424270874595e-13 5.375788275004574e-13 4.426359958700208e-14
4.723288106065518 4.9525562762963595e-21 6.209309237554761e-13 5.722736895168441e-13 4.8657234238632e-14
4.867139040275056 5.122297825814352e-21 6.617714272803529e-13 6.086562037435718e-13 5.311522353678102e-14
4.940699165968905 5.2087659639055706e-21 6.831132174397472e-13 6.27732204978271e-13 5.538101246147629e-14
5.015371051989984 5.293236188568719e-21 7.046829682365686e-13 6.470194978302525e-13 5.76634704063162e-14
5.091171501069577 5.38231164218943e-21 7.273710307724018e-13 6.673577699037453e-13 6.001326086865638e-14
5.129500256944802 5.42595955043998e-21 7.38790055209569e-13 6.775985357888737e-13 6.119151942069539e-14
5.168117569889187 5.469631210496632e-21 7.503430477900848e-13 6.879589116186442e-13 6.238413617144071e-14
5.20702561229733 5.518181993142173e-21 7.627024941948289e-13 6.990118700741469e-13 6.369062412068194e-14
5.246226572918644 5.566261826222853e-21 7.751399253279443e-13 7.101373319591484e-13 6.500259336879604e-14
5.265937586045735 5.5901227157248775e-21 7.81387540833793e-13 7.15727103494627e-13 6.566043733916587e-14
5.285722656980489 5.613863080417428e-21 7.876542507206505e-13 7.213348356491358e-13 6.631941507151477e-14
5.305582063971359 5.637482115886446e-21 7.939399334543227e-13 7.269604869490716e-13 6.69794465052511e-14
5.3255160863122235 5.6619253436763916e-21 8.003782392814345e-13 7.327321580060198e-13 6.764608127541502e-14
5.365609099470188 5.717766868228824e-21 8.143571366717472e-13 7.453315101783072e-13 6.902562649344032e-14
5.406003951863644 5.773496896279994e-21 8.284851503071142e-13 7.580746683868401e-13 7.041048192027411e-14
5.446702915881641 5.829134971691634e-21 8.427664382946532e-13 7.709664325899242e-13 7.180000570472912e-14
5.487708281020852 5.886484648329106e-21 8.574651254873277e-13 7.842652086149647e-13 7.31999168723631e-14
5.529022354014368 5.959620297132615e-21 8.746541668361848e-13 7.999950660327051e-13 7.465910080347959e-14
5.570647458961463 6.0338727716407e-21 8.922185664904803e-13 8.160950078860616e-13 7.612355860441843e-14
5.612585937458331 6.109372231570555e-21 9.10183636631908e-13 8.325910002251601e-13 7.759263640674804e-14
5.654840148729818 6.18892902838913e-21 9.289776558138771e-13 8.499041799784939e-13 7.907347583538296e-14
5.67608639626678 6.241097014569855e-21 9.40327990510272e-13 8.604788724376617e-13 7.984911807261031e-14
5.686739436050992 6.267566515857746e-21 9.460883926830006e-13 8.658508965728089e-13 8.023749611019201e-14
5.6974124697621304 6.2943026459007696e-21 9.519074282524094e-13 8.712811966430402e-13 8.062623160936878e-14
5.718818669136295 6.348604810133423e-21 9.637270592201433e-13 8.823223258917565e-13 8.140473332838705e-14
5.740305295436557 6.407384783165605e-21 9.763043611418196e-13 8.941136135103201e-13 8.219074763149944e-14
5.7835210386641895 6.556246552012948e-21 1.0065075337263573e-12 9.22692778529092e-13 8.38147551972656e-14
5.827062130521658 6.721457718705694e-21 1.039638976080084e-12 9.541785815491276e-13 8.546039453095652e-14
5.8489554468988025 6.836620197063573e-21 1.0614247250918688e-12 9.75072779463292e-13 8.635194562857679e-14
5.870931020387893 6.957633148821601e-21 1.084271236539104e-12 9.97024968252221e-13 8.72462682868829e-14
5.892989160043636 7.08496690494395e-21 1.1082631707134822e-12 1.0201198907094416e-12 8.814328000404044e-14
5.915130176081913 7.228163962936388e-21 1.1349108167578223e-12 1.0458367789293447e-12 8.907403782847743e-14
5.95966208400165 7.627017629330782e-21 1.2065513752226202e-12 1.115339322449598e-12 9.121205277302202e-14
6.004529249263818 8.1921526699709e-21 1.3057091124223163e-12 1.2120815329754486e-12 9.362757944686763e-14
6.027089341400364 8.58271402436931e-21 1.3730985367550724e-12 1.2780666935159357e-12 9.50318432391366e-14
6.049734195844842 9.038061992804292e-21 1.4513796938610892e-12 1.3548585225371902e-12 9.652117132389907e-14
6.095279466722835 1.034608059514416e-20 1.673936244555513e-12 1.5737250692447218e-12 1.0021117531079134e-13
6.141167624020661 1.2330744719615881e-20 2.010063102072435e-12 1.9050266165482256e-12 1.0503648552420965e-13
6.164241091010745 1.3593732105532664e-20 2.2242712898551954e-12 2.1161888931051667e-12 1.080823967500289e-13
6.187401249150058 1.500875254279412e-20 2.4650305779253965e-12 2.3538238419908548e-12 1.1120673593454226e-13
6.1990139391386085 1.5695510972021783e-20 2.58266159692348e-12 2.4698657332846696e-12 1.1279586363881044e-13
6.204828454712694 1.6055272875234863e-20 2.6443376183091063e-12 2.530739459180849e-12 1.1359815912825769e-13
6.210648424152782 1.631534193534925e-20 2.689692043870346e-12 2.575414215511392e-12 1.1427782835895429e-13
6.233982942956859 1.7184659116265778e-20 2.8436488379956198e-12 2.727017825961601e-12 1.166310120340184e-13
6.239830258556775 1.728770400293578e-20 2.8633835580485694e-12 2.746438419080854e-12 1.1694513896771524e-13
6.245683058788269 1.7284735280667176e-20 2.8655771638365328e-12 2.7483175229599637e-12 1.1725964087656882e-13
6.257405133728602 1.7233289766323747e-20 2.8624103769066512e-12 2.74460750756507e-12 1.1780286934158156e-13
6.269149208991335 1.7027686417752523e-20 2.833568285384029e-12 2.7156009052180382e-12 1.1796738016599094e-13
6.280915325867298 1.6553551323541084e-20 2.7598377537015153e-12 2.6421737079005433e-12 1.1766404580097198e-13
6.304513850009849 1.5401528062764697e-20 2.577417943641764e-12 2.4607831836077874e-12 1.1663476003397595e-13
6.32820103803542 1.400187692379853e-20 2.3519926302032915e-12 2.2368367405647293e-12 1.1515588963856217e-13
6.3519772230701035 1.2726800109583777e-20 2.1458412431906855e-12 2.0320204887128773e-12 1.1382075447780807e-13
6.375842739491607 1.1650023555422306e-20 1.9716682052526962e-12 1.8590347927042096e-12 1.1263341254848712e-13
6.399797922933955 1.0798894624535957e-20 1.8344885165472887e-12 1.72251045815628e-12 1.1197805839100883e-13
6.42384311029221 1.0087453641562793e-20 1.7200691651355764e-12 1.6086401283446303e-12 1.1142903679094656e-13
6.447978639727206 9.57245126939966e-21 1.6383858455070149e-12 1.5270919407712849e-12 1.1129390473572962e-13
6.472204850670314 9.141261412381731e-21 1.5704633882738027e-12 1.4592227867147533e-12 1.1124060155904896e-13
6.496522083828205 8.861222074784221e-21 1.528072545305898e-12 1.4165507545958652e-12 1.1152179071003339e-13
