Dust emission spectrum from A.P. Jones, M. Kohler, N. Ysard, M. Bocchio, and L. Verstraete (2017), A&A, 602A, 46J 
inside the DustPedia framework.

lambda    nu*dP/dnu     j_nu    j_nu(carb.) j_nu(sil)
 (um)   (erg s-1 H-1) (Jy cm2 sr-1 H-1)
0.9927057738263894 8.89255635859127e-26 2.3432391092005743e-18 2.3432390819314366e-18 2.726913731868241e-26
1.0001793341362166 9.040761531512259e-26 2.4002270392265223e-18 2.40022700639299e-18 3.28335322072614e-26
1.0077091589558085 9.18903158015912e-26 2.4579575771781295e-18 2.4579575376965345e-18 3.9481594841037776e-26
1.0114953028030835 9.26317645818778e-26 2.4870999602860053e-18 2.4870999170127734e-18 4.3273232913944794e-26
1.0152956718711033 9.337320258782315e-26 2.516426341831415e-18 2.516426294418002e-18 4.741341251038523e-26
1.0229392996569957 9.485509485757357e-26 2.5756091515675333e-18 2.5756090947029506e-18 5.686458289501688e-26
1.0267826658714554 9.559379381986439e-26 2.6054194990891535e-18 2.605419436842895e-18 6.224625733816475e-26
1.0306404723013447 9.633221903802759e-26 2.6354100049680326e-18 2.6354099368532014e-18 6.811483203267708e-26
1.03451277320114 9.707031537951615e-26 2.6655800600702885e-18 2.665579985558125e-18 7.451216387820583e-26
1.0383996230291617 9.780802818949797e-26 2.6959290498269567e-18 2.695928968343452e-18 8.148350490346154e-26
1.0403485208654093 9.81767238248965e-26 2.7111704517775014e-18 2.7111703665779394e-18 8.519956150637219e-26
1.0423010764483396 9.854530330600683e-26 2.7264563547048384e-18 2.7264562656270786e-18 8.907775988825347e-26
1.0462171883269815 9.928208707489409e-26 2.757161350682514e-18 2.757161253334751e-18 9.734776206908841e-26
1.0471985131304309 9.946620000600187e-26 2.764865290395304e-18 2.7648651908678658e-18 9.952743722285911e-26
1.048180758391296 9.965027807954837e-26 2.772580286718126e-18 2.7725801849643023e-18 1.0175382510191953e-25
1.0501480137395462 1.0001832636457755e-25 2.7880434097314363e-18 2.788043303380868e-18 1.0635056808428435e-25
1.0521189612883777 1.0038622537257118e-25 2.803550640672518e-18 2.8035505295266833e-18 1.1114583474498394e-25
1.0531058218030118 1.0056984806988538e-25 2.8113132582039523e-18 2.811313144583341e-18 1.1362061167724824e-25
1.0540936079674168 1.00752550374282e-25 2.819062218807165e-18 2.8190621026585125e-18 1.1614865237835285e-25
1.058054026499678 1.0148290945369994e-25 2.8501662099268644e-18 2.8501660831169308e-18 1.2680993392300632e-25
1.0590464539527713 1.0166538269540372e-25 2.8579691940357905e-18 2.857969064417652e-18 1.296181393433719e-25
1.06003981227728 1.0184780773642749e-25 2.865782952311609e-18 2.865782819825793e-18 1.3248581622146882e-25
1.0620293250338977 1.0221251005613217e-25 2.881442750583173e-18 2.8814426121787756e-18 1.3840439693309325e-25
1.0660195594769086 1.0294130165554951e-25 2.9128911882469004e-18 2.912891037237448e-18 1.5100945197888952e-25
1.070024785945596 1.0366923433047365e-25 2.944510869175532e-18 2.944510704466983e-18 1.6470855098042803e-25
1.0740450607676866 1.0439625877731044e-25 2.9763011389253045e-18 2.976300959333678e-18 1.7959162672604482e-25
1.07808044048254 1.051223263234646e-25 3.0082613428677657e-18 3.0082611471122037e-18 1.9575556183470232e-25
1.0861967418109137 1.0657017761945993e-25 3.0726537145573844e-18 3.072653482206031e-18 2.32351352690056e-25
1.0902777775684922 1.0728908921530126e-25 3.105003913067818e-18 3.1050036600513515e-18 2.530164658786796e-25
1.0943741465085532 1.0800680708765046e-25 3.1375191509683474e-18 3.137518875538352e-18 2.754299951050283e-25
1.1026131145906286 1.0943848228570573e-25 3.203042109892714e-18 3.2030417838206085e-18 3.2607210534570924e-25
1.1109141095355224 1.1086485167297352e-25 3.2692173571948875e-18 3.2692169716682768e-18 3.855266102238225e-25
1.1192775983109025 1.122843268674595e-25 3.3360026314134055e-18 3.3360021761786148e-18 4.552347885810852e-25
1.1277040513999907 1.1369084276098518e-25 3.403220272096648e-18 3.4032197352390344e-18 5.368576141382003e-25
1.1361939428280308 1.1509088857676064e-25 3.471065794361167e-18 3.4710651620546574e-18 6.32306510564958e-25
1.1447477501889525 1.164841647161625e-25 3.539534269651964e-18 3.539533525873689e-18 7.437782750971697e-25
1.1533659546722406 1.1787104724734046e-25 3.6086411971316234e-18 3.608640323336111e-18 8.737955135493362e-25
1.1707974979042381 1.2062998909051734e-25 3.7489228860189705e-18 3.748921684558082e-18 1.201460889040872e-24
1.1884924949847024 1.233597357813872e-25 3.8916995771393446e-18 3.891697933366111e-18 1.6437732336433012e-24
1.2064549276569216 1.2608049449616907e-25 4.037647845977231e-18 4.03764560809485e-18 2.237882382344068e-24
1.2246888378427687 1.2876719479940505e-25 4.1860115981126e-18 4.1860085662394966e-18 3.0318731045054956e-24
1.2431983285522175 1.314151506843221e-25 4.336659138892624e-18 4.3366550511256144e-18 4.087767009373174e-24
1.2619875648066055 1.340252960781576e-25 4.48963757298819e-18 4.489632087834679e-18 5.485153510213001e-24
1.3004222497298317 1.3909997153593503e-25 4.801543477081309e-18 4.801533739166463e-18 9.737914844937415e-24
1.3400274889804893 1.4398644700246934e-25 5.121589373867065e-18 5.12157240136965e-18 1.6972497413909292e-23
1.3808389325824078 1.4868325042841264e-25 5.449723939862516e-18 5.449694884247319e-18 2.9055615195742533e-23
1.4228933163050095 1.5322224835412466e-25 5.7871348628395954e-18 5.787085982670455e-18 4.888016914007259e-23
1.466228494730424 1.576997047393294e-25 6.1376478726828836e-18 6.137567024551211e-18 8.084813166815507e-23
1.5108834753276823 1.6207216660245207e-25 6.499932433896078e-18 6.49980090149034e-18 1.3153240573855456e-22
1.5568984535646726 1.6630761213581175e-25 6.872928853827245e-18 6.872718148525306e-18 2.1070530193975331e-22
1.6043148490894465 1.7042864411666378e-25 7.257743661615122e-18 7.257410694723963e-18 3.329668911607975e-22
1.6531753430134553 1.7446128618932314e-25 7.655744343701991e-18 7.655225897668537e-18 5.184460334529139e-22
1.7035239163302658 1.7844609682083516e-25 8.069093004933527e-18 8.068297421242344e-18 7.955836911838405e-22
1.755405889504358 1.8253129714564089e-25 8.505195960580509e-18 8.50399213115457e-18 1.2038294259355617e-21
1.8088679632656115 1.8670554529713883e-25 8.964653689496695e-18 8.962856912012918e-18 1.7967774837787748e-21
1.8639582606462262 1.9096443285259282e-25 9.448396356385389e-18 9.445750014178695e-18 2.6463422066935936e-21
1.9207263702978936 1.9534126449296874e-25 9.959302570353272e-18 9.955455028733973e-18 3.847541619298404e-21
1.979223391128241 1.9988975668446903e-25 1.0501583438864432e-17 1.04960591884417e-17 5.5242504227329016e-21
2.039501978296691 2.0466784532381342e-25 1.1080087280366867e-17 1.1072251712317266e-17 7.835568049596279e-21
2.1016163906111602 2.098157787873149e-25 1.1704719900460377e-17 1.1693736078015281e-17 1.0983822445092505e-20
2.1656225393682647 2.1541925500900914e-25 1.2383309157540642e-17 1.2368087170531609e-17 1.5221987009033842e-20
2.231578038680979 2.214894894340215e-25 1.3120024132854446e-17 1.3099162002679078e-17 2.086213017536849e-20
2.299542257339062 2.280785700305829e-25 1.39217973982339e-17 1.389351294887377e-17 2.828444936012606e-20
2.369576372248914 2.3528465820573317e-25 1.4799047141013854e-17 1.476110005103545e-17 3.794708997839752e-20
2.4417434235010123 2.4322107036960763e-25 1.5764153502134668e-17 1.5713759241231138e-17 5.039426090353563e-20
2.5161083711144245 2.520770822824599e-25 1.6835737243144858e-17 1.6769470573948782e-17 6.62666691960801e-20
2.5927381535095444 2.621523018382893e-25 1.8041879050315812e-17 1.7955569989752955e-17 8.630906056284626e-20
2.6717017477616296 2.7377654792957494e-25 1.941572672711977e-17 1.9304354798200077e-17 1.1137192891969387e-19
2.753070231689431 2.874337373742153e-25 2.100508607010439e-17 2.0862670154100574e-17 1.4241591600381067e-19
2.836916847834745 3.0423728921682305e-25 2.2910178997484926e-17 2.272965950342064e-17 1.805194940642898e-19
2.9233170693905177 3.266138163031854e-25 2.5344277064520593e-17 2.5117441006906886e-17 2.2683605761370295e-19
2.967498994190263 3.4225221452354327e-25 2.695915529136383e-17 2.6706141877025997e-17 2.530134143378325e-19
3.0123486681368425 3.5974596812679796e-25 2.876541253068893e-17 2.848357597635224e-17 2.8183655433668865e-19
3.0578761833420214 3.9257411377686464e-25 3.186478469661806e-17 3.155116859514771e-17 3.13616101470354e-19
3.1040917844459814 4.331454189602999e-25 3.5689273955957286e-17 3.5340970604727195e-17 3.4830335123008817e-19
3.127460860933648 4.731328338745694e-25 3.9277551263882914e-17 3.8910634235356826e-17 3.6691702852609817e-19
3.1510058709225794 5.25316491144833e-25 4.393793885284969e-17 4.3551589454731426e-17 3.8634939811825796e-19
3.162844764501044 5.7294327978389e-25 4.810153545035665e-17 4.770511811567414e-17 3.964173346825112e-19
3.1747281389236908 6.278119284565512e-25 5.2906074292458455e-17 5.2499376146617447e-17 4.0669814584102244e-19
3.1986289994194426 7.79117358412832e-25 6.615096496139132e-17 6.572300178530861e-17 4.279631760826817e-19
3.2227097969389145 1.1321982645823875e-24 9.685300887572881e-17 9.640248092295821e-17 4.505279527706396e-19
3.2348180950136065 1.4654510135049552e-24 1.2583185601078274e-16 1.253692781062485e-16 4.625779045342586e-19
3.240889293275058 1.7143821066159786e-24 1.4748275929427912e-16 1.4701382519445202e-16 4.689340998270587e-19
3.2469718861334385 2.002472408758759e-24 1.7258955230469918e-16 1.721140412219317e-16 4.755110827674701e-19
3.2714166318528037 3.5321082431007214e-24 3.06718021860395e-16 3.062153053484374e-16 5.027165119578155e-19
3.2744851364798273 3.627911934737054e-24 3.153328331238668e-16 3.1482690314825907e-16 5.059299756077677e-19
3.2775565192852394 3.7264137021070636e-24 3.241982682695439e-16 3.236891080788737e-16 5.091601906701966e-19
3.283707930232385 3.632662240804391e-24 3.166350405512456e-16 3.161200887868999e-16 5.1495176434572e-19
3.2898708863219004 3.33372700216629e-24 2.91124207834287e-16 2.9060397166177524e-16 5.202361725118119e-19
3.29141343181113 3.263190587998187e-24 2.8509809134291503e-16 2.8457652786433064e-16 5.215634785843431e-19
3.292184975758714 3.228525514767725e-24 2.8213559710401583e-16 2.816133690402874e-16 5.222280637284442e-19
3.295272960557952 3.0102741215936845e-24 2.6330970888971544e-16 2.627848931235941e-16 5.24815766121336e-19
3.3076538914384823 2.2526166147727817e-24 1.9777745101810773e-16 1.9724223471327753e-16 5.352163048302111e-19
3.310756385682612 2.0979861164509756e-24 1.8437382615398109e-16 1.83835986842974e-16 5.378393110071204e-19
3.313861789986515 1.9551490482978434e-24 1.719822773311339e-16 1.7144180584012631e-16 5.404714910075639e-19
3.3200813396944477 1.755208069633124e-24 1.546844878428238e-16 1.5413836113422653e-16 5.461267085973173e-19
3.345076488085796 1.4017023885671794e-24 1.2446043059833507e-16 1.2388911812390392e-16 5.713124744311448e-19
3.3482140837626964 1.4156040672307934e-24 1.2581269161433886e-16 1.2523796795830468e-16 5.747236560342231e-19
3.3513546224236106 1.4296506899691213e-24 1.2718027398040327e-16 1.2660212299659927e-16 5.781509838040034e-19
3.3576445397418455 1.5297762719219088e-24 1.363427566857176e-16 1.3575744239031284e-16 5.853142954047747e-19
3.3702598118196083 1.8964064266058023e-24 1.6965405060547492e-16 1.6905370937199644e-16 6.003412334784998e-19
3.382922481734668 1.981963347635779e-24 1.7797421994212745e-16 1.7735924484669704e-16 6.149750954305086e-19
3.389271646505754 2.0262203773233366e-24 1.8228985109612258e-16 1.8166745308890618e-16 6.223980072164273e-19
3.395632727569191 2.074168795401638e-24 1.8695377548595592e-16 1.8632372751809046e-16 6.30047967865575e-19
3.421196662673239 2.3047827313848727e-24 2.0930396910045823e-16 2.0864222251950216e-16 6.617465809559741e-19
3.4276182099114902 2.2608588563348813e-24 2.0570048942449873e-16 2.0503163823936804e-16 6.688511851306567e-19
3.4340518103208963 2.0642857575761643e-24 1.8816814016596048e-16 1.874925544390902e-16 6.755857268702479e-19
3.4469541582030403 1.783997647306997e-24 1.6322971337514387e-16 1.6254117133036122e-16 6.885420447826818e-19
3.472904465399547 1.707714131379322e-24 1.574263556865324e-16 1.5670801113051484e-16 7.183445560175184e-19
3.4990501388274233 1.5901307277047213e-24 1.4769045507386731e-16 1.469415435566836e-16 7.489115171837069e-19
3.5253949054701885 1.1657413791023234e-24 1.0908861252016451e-16 1.0830989467478789e-16 7.787178453766579e-19
3.5519380250092896 7.652556911004869e-25 7.215083817114734e-17 7.134207226472014e-17 8.08765906427199e-19
3.578680990867387 6.08531506489982e-25 5.780634201183235e-17 5.696462761770604e-17 8.417143941262845e-19
3.605625307711299 5.474131796852457e-25 5.239203599813652e-17 5.151556499827789e-17 8.764709998586462e-19
3.660119384959845 5.07605509823888e-25 4.9316359741445934e-17 4.836662097087387e-17 9.497387705720657e-19
3.715437065384467 4.813141031689262e-25 4.746876466014942e-17 4.6441426375605174e-17 1.0273382845442506e-18
3.8285932144167436 4.792400731838352e-25 4.8703680768561417e-17 4.750829448657274e-17 1.1953862819886552e-18
3.94519561050918 4.912193844201926e-25 5.14414818760854e-17 5.006092024903152e-17 1.3805616270539148e-18
4.06534921144712 5.091436690808602e-25 5.494240149117201e-17 5.3359265312338576e-17 1.583136178833431e-18
4.189162171576248 5.306210119109747e-25 5.900394502675277e-17 5.719996947495912e-17 1.803975551793629e-18
4.316745939156006 5.547103270030598e-25 6.356121251552403e-17 6.151838020819375e-17 2.0428323073303123e-18
4.448215356677963 5.810395485697725e-25 6.860581563069701e-17 6.630874651414777e-17 2.2970691165492607e-18
4.58368876423945 6.095922328815972e-25 7.416926562004838e-17 7.160173213539134e-17 2.5675334846570354e-18
4.723288106065518 6.4060507089429085e-25 8.031640151907517e-17 7.745996698698428e-17 2.856434532090872e-18
4.867139040275056 6.745191310844308e-25 8.714399343514962e-17 8.398672952524361e-17 3.1572639099060437e-18
4.940699165968905 6.932818695047146e-25 9.092172920645245e-17 8.760854607460932e-17 3.3131831318431594e-18
5.015371051989984 7.123396170672827e-25 9.483302423412287e-17 9.136061033579437e-17 3.472413898328489e-18
5.091171501069577 7.338518694788706e-25 9.917348273797964e-17 9.553526820891811e-17 3.638214529061539e-18
5.129500256944802 7.447345780612144e-25 1.0140188015181661e-16 9.767960700421895e-17 3.722273147597644e-18
5.168117569889187 7.558898162518298e-25 1.036955960452015e-16 9.988777201206376e-17 3.807824033137751e-18
5.20702561229733 7.687703290291884e-25 1.0625656206015502e-16 1.023558689315993e-16 3.9006931285557505e-18
5.246226572918644 7.818266825466519e-25 1.0887469818139004e-16 1.0488008959914194e-16 3.994608582248077e-18
5.265937586045735 7.884222706072391e-25 1.1020569144849266e-16 1.061637396664436e-16 4.0419517820490595e-18
5.285722656980489 7.950636191371222e-25 1.1155156979000175e-16 1.0746202160822121e-16 4.089548181780502e-18
5.305582063971359 8.017513654963359e-25 1.1291254015250787e-16 1.0877514526632939e-16 4.137394886178494e-18
5.3255160863122235 8.087969572190231e-25 1.1433274818399696e-16 1.1014692334352606e-16 4.1858248404709655e-18
5.365609099470188 8.254787905279541e-25 1.1756942172177754e-16 1.1328338930124818e-16 4.286032420529295e-18
5.406003951863644 8.425616005630075e-25 1.2090588889641848e-16 1.165185304813237e-16 4.387358415094765e-18
5.446702915881641 8.60064198135195e-25 1.2434662166636981e-16 1.198568409039242e-16 4.489780762445592e-18
5.487708281020852 8.786122872842374e-25 1.2798460204678111e-16 1.233909341128505e-16 4.5936679339306e-18
5.529022354014368 9.03100897369005e-25 1.3254216268397958e-16 1.278401085821835e-16 4.7020541017960795e-18
5.570647458961463 9.286450412073623e-25 1.3731717237041266e-16 1.325055202845508e-16 4.8116520858618595e-18
5.612585937458331 9.55320200603017e-25 1.4232506735135515e-16 1.3740262698874748e-16 4.922440362607678e-18
5.654840148729818 9.841484468321214e-25 1.4772376818626015e-16 1.4268888138043148e-16 5.034886805828657e-18
5.67608639626678 1.00325858220343e-24 1.5115806153360292e-16 1.460643834013695e-16 5.093678132233401e-18
5.686739436050992 1.0130522653505938e-24 1.52920114530009e-16 1.477969137284138e-16 5.1232008015952185e-18
5.6974124697621304 1.0230100594162267e-24 1.5471306823313448e-16 1.4956026050936708e-16 5.1528077237673994e-18
5.718818669136295 1.0434336654299311e-24 1.5839468480870038e-16 1.5318241175317637e-16 5.212273055523957e-18
5.740305295436557 1.0657469851332755e-24 1.623897213404594e-16 1.571172417146003e-16 5.2724796258590645e-18
5.7835210386641895 1.1227273545133186e-24 1.7235982992301695e-16 1.6696274893269538e-16 5.3970809903215476e-18
5.827062130521658 1.1873958577717282e-24 1.8366001326468886e-16 1.781358571358525e-16 5.524156128836373e-18
5.8489554468988025 1.2323390608955817e-24 1.913277483942847e-16 1.8573514786384986e-16 5.5926005304348465e-18
5.870931020387893 1.2801921563634921e-24 1.9950398399820787e-16 1.9384246369902564e-16 5.661520299182241e-18
5.892989160043636 1.3311858297788834e-24 2.0823022158228056e-16 2.0249930765754776e-16 5.730913924732734e-18
5.915130176081913 1.3888608184170638e-24 2.1806826379078352e-16 2.1226546169949738e-16 5.802802091285992e-18
5.95966208400165 1.5492198191625762e-24 2.4507787895289756e-16 2.391123015269803e-16 5.965577425917285e-18
6.004529249263818 1.7783650415110968e-24 2.834453328031761e-16 2.772971097662468e-16 6.1482230369293836e-18
6.027089341400364 1.937044343955014e-24 3.0989646710380374e-16 3.0364323005583557e-16 6.2532370479682185e-18
6.049734195844842 2.1235969331076302e-24 3.410184029620476e-16 3.3465402109657236e-16 6.364381865475271e-18
6.095279466722835 2.660921673492984e-24 4.3052179926703474e-16 4.2388601900510736e-16 6.635780261927388e-18
6.141167624020661 3.4836253720844174e-24 5.678737968462603e-16 5.60887989777798e-16 6.985807068462221e-18
6.164241091010745 4.0087326858958124e-24 6.559279639116272e-16 6.487235461195205e-16 7.204417792106608e-18
6.187401249150058 4.603840610746689e-24 7.56132653198678e-16 7.487034391556059e-16 7.429214043071964e-18
6.1990139391386085 4.8942009539389586e-24 8.053299363044698e-16 7.977862732341561e-16 7.543663070313703e-18
6.204828454712694 5.046884890739314e-24 8.312326844623987e-16 8.236311809524682e-16 7.601503509930691e-18
6.210648424152782 5.15832250737347e-24 8.503835875936707e-16 8.427325502635343e-16 7.651037330136641e-18
6.233982942956859 5.5359196339677786e-24 9.160618972924024e-16 9.082370759510143e-16 7.824821341388372e-18
6.239830258556775 5.583687935052934e-24 9.248330619143892e-16 9.169833121384058e-16 7.849749775983031e-18
6.245683058788269 5.587174050463398e-24 9.262784826849826e-16 9.184037522538048e-16 7.87473043117764e-18
6.257405133728602 5.575286693988528e-24 9.260424854161033e-16 9.181235511009238e-16 7.918934315179456e-18
6.269149208991335 5.499217477484454e-24 9.151218701316806e-16 9.071843841651312e-16 7.937485966549813e-18
6.280915325867298 5.31073884755044e-24 8.854159017029374e-16 8.774916248158233e-16 7.924276887114073e-18
6.304513850009849 4.8468974755893285e-24 8.111195508436713e-16 8.032504778229547e-16 7.869073020716546e-18
6.32820103803542 4.2741365108606716e-24 7.179564303226236e-16 7.101731904688896e-16 7.783239853733558e-18
6.3519772230701035 3.749648038445332e-24 6.322209305610122e-16 6.245138119451262e-16 7.707118615886167e-18
6.375842739491607 3.3077799806486665e-24 5.598138567523216e-16 5.521729395829722e-16 7.640917169349424e-18
6.399797922933955 2.9553969374697407e-24 5.020552502946792e-16 4.944440317128883e-16 7.611218581790839e-18
6.42384311029221 2.6619415098688975e-24 4.539028057243767e-16 4.463140283950978e-16 7.588777329278798e-18
6.447978639727206 2.4489923016588425e-24 4.1916059010088144e-16 4.1156567982326813e-16 7.594910277613395e-18
6.472204850670314 2.2714444584729467e-24 3.902328354484445e-16 3.826260733498241e-16 7.606762098620462e-18
6.496522083828205 2.1567347755041838e-24 3.719179104350203e-16 3.6427604416413836e-16 7.64186627088191e-18
6.520930681187647 2.0601417058949376e-24 3.5659570726123157e-16 3.489151082684121e-16 7.680598992819469e-18
6.57002334288761 1.9622352961840628e-24 3.422058496356042e-16 3.344152298864343e-16 7.790619749169863e-18
