Dust emission spectrum from A.P. Jones, M. Kohler, N. Ysard, M. Bocchio, and L. Verstraete (2017), A&A, 602A, 46J 
inside the DustPedia framework.

lambda    nu*dP/dnu     j_nu    j_nu(carb.) j_nu(sil)
 (um)   (erg s-1 H-1) (Jy cm2 sr-1 H-1)
0.9927057738263894 1.7788915253298488e-23 4.687480208265675e-16 4.687480208098003e-16 1.6767185599322366e-26
1.0001793341362166 1.8082538203511607e-23 4.800723587568757e-16 4.800723587366794e-16 2.019629274007361e-26
1.0077091589558085 1.8375737054334044e-23 4.915292948438333e-16 4.91529294819538e-16 2.429530936410809e-26
1.0114953028030835 1.8522141357842685e-23 4.973069145712314e-16 4.973069145445972e-16 2.663403459036281e-26
1.0152956718711033 1.8668396450180647e-23 5.031169895110037e-16 5.031169894818154e-16 2.9188424277268965e-26
1.0229392996569957 1.896025828076261e-23 5.148296442836478e-16 5.148296442486258e-16 3.502196517428568e-26
1.0267826658714554 1.9105510793861573e-23 5.20722824916709e-16 5.20722824878364e-16 3.8345026761947863e-26
1.0306404723013447 1.9250549920167868e-23 5.26647183749809e-16 5.266471837078391e-16 4.196975181268526e-26
1.03451277320114 1.9395361675547285e-23 5.3260246593471e-16 5.326024658887879e-16 4.592218201938385e-26
1.0383996230291617 1.9539932153992852e-23 5.385884134535024e-16 5.385884134032719e-16 5.0230482239900365e-26
1.0403485208654093 1.961212259075918e-23 5.415928052308927e-16 5.415928051783653e-16 5.252750534082337e-26
1.0423010764483396 1.9684247530293807e-23 5.446047651799274e-16 5.446047651250023e-16 5.492510261612064e-26
1.0462171883269815 1.9828294062645827e-23 5.506512569407825e-16 5.506512568807435e-16 6.003895216194936e-26
1.0471985131304309 1.9864262086647667e-23 5.521675580184371e-16 5.521675579570501e-16 6.138702466002673e-26
1.048180758391296 1.9900212241462577e-23 5.536857219619704e-16 5.536857218992063e-16 6.276408974884457e-26
1.0501480137395462 1.9972058095201964e-23 5.56727621577378e-16 5.567276215117705e-16 6.560758456075196e-26
1.0521189612883777 2.004382993072284e-23 5.597769219357762e-16 5.597769218672019e-16 6.857432664921347e-26
1.0531058218030118 2.0079632409949245e-23 5.613027949960235e-16 5.613027949259178e-16 7.010559501788588e-26
1.0540936079674168 2.011523505032548e-23 5.628254465236143e-16 5.628254464519445e-16 7.166993302477691e-26
1.058054026499678 2.0257442586317314e-23 5.689340074093635e-16 5.689340073310952e-16 7.826833432393281e-26
1.0590464539527713 2.0292942675087964e-23 5.704656145887665e-16 5.704656145087598e-16 8.000669392802879e-26
1.06003981227728 2.0328421631560707e-23 5.719989998203243e-16 5.719989997385422e-16 8.178200326152908e-26
1.0620293250338977 2.0399315322277458e-23 5.750710868949078e-16 5.750710868094613e-16 8.544647463013315e-26
1.0660195594769086 2.0540840059284357e-23 5.81236404102267e-16 5.812364040090145e-16 9.32526671331027e-26
1.070024785945596 2.0682003698788227e-23 5.874296755513836e-16 5.874296754496446e-16 1.0173901664118228e-25
1.0740450607676866 2.0822793244768078e-23 5.936506152218457e-16 5.93650615110884e-16 1.1096169731883419e-25
1.07808044048254 2.0963195805829438e-23 5.998989346145014e-16 5.9989893449352e-16 1.2098124918976807e-25
1.0861967418109137 2.1242540600474094e-23 6.124693862832049e-16 6.124693861395281e-16 1.4367689444168952e-25
1.0902777775684922 2.1380892864801326e-23 6.187745323932143e-16 6.187745322367155e-16 1.5649890064968613e-25
1.0943741465085532 2.1518797801685993e-23 6.25105417233699e-16 6.251054170632886e-16 1.704102602220164e-25
1.1026131145906286 2.179321674285697e-23 6.378431926271999e-16 6.378431924253419e-16 2.018578828116416e-25
1.1109141095355224 2.20657007132937e-23 6.506802713573916e-16 6.506802711185892e-16 2.388023410618436e-25
1.1192775983109025 2.2335901719195096e-23 6.636066581062627e-16 6.636066578241154e-16 2.8214752072559782e-25
1.1277040513999907 2.2602563821842718e-23 6.765848641087768e-16 6.765848637758409e-16 3.329360073599551e-25
1.1361939428280308 2.2866976577728026e-23 6.896530316252753e-16 6.896530312329066e-16 3.9236861167795378e-25
1.1447477501889525 2.3129051981577765e-23 7.028085947376588e-16 7.028085942758322e-16 4.61826664664548e-25
1.1533659546722406 2.338884703603334e-23 7.160533391251782e-16 7.160533385822804e-16 5.428977855904327e-25
1.1707974979042381 2.390243687344878e-23 7.428367796606218e-16 7.428367789131851e-16 7.474367963631968e-25
1.1884924949847024 2.440580107894206e-23 7.6994365411892e-16 7.699436530949737e-16 1.0239464795520867e-24
1.2064549276569216 2.4902881374209896e-23 7.974989766736697e-16 7.974989752777634e-16 1.395906736644136e-24
1.2246888378427687 2.538824606677999e-23 8.253304939727452e-16 8.253304920789783e-16 1.893766750105517e-24
1.2431983285522175 2.5860760818627106e-23 8.533970714854188e-16 8.533970689285409e-16 2.5568780546157853e-24
1.2619875648066055 2.6320251237017934e-23 8.816872063859798e-16 8.816872029501423e-16 3.4358372260607374e-24
1.3004222497298317 2.7192524919098746e-23 9.38649298119656e-16 9.386492920020317e-16 6.1176244716029755e-24
1.3400274889804893 2.800167186829334e-23 9.960178063752344e-16 9.960177956803063e-16 1.069492789822127e-23
1.3808389325824078 2.874471206423741e-23 1.0535870384159576e-15 1.0535870200498079e-15 1.8366149829754226e-23
1.4228933163050095 2.9425287605911535e-23 1.1113797740370284e-15 1.111379743040259e-15 3.099676963163635e-23
1.466228494730424 3.005980856065821e-23 1.1699230532520216e-15 1.1699230018134657e-15 5.14385560053306e-23
1.5108834753276823 3.063596251947626e-23 1.2286606059411781e-15 1.2286605219708369e-15 8.397034139062043e-23
1.5568984535646726 3.114379492172084e-23 1.2870672844510251e-15 1.287067149467906e-15 1.3498311960323042e-22
1.6043148490894465 3.158426312132956e-23 1.3450232304770223e-15 1.3450230164122493e-15 2.140647727187185e-22
1.6531753430134553 3.195873690838531e-23 1.4024195548617037e-15 1.4024192203388343e-15 3.3452286957129856e-22
1.7035239163302658 3.2271688960767283e-23 1.459282462827808e-15 1.4592819475680611e-15 5.152597470249536e-22
1.755405889504358 3.2548809310236804e-23 1.516638547997863e-15 1.5166377653533528e-15 7.826445099038661e-22
1.8088679632656115 3.27837979880723e-23 1.5741117657847655e-15 1.5741105930609554e-15 1.1727238101278592e-21
1.8639582606462262 3.297239933467651e-23 1.631383881707016e-15 1.631382147530493e-15 1.7341765222275136e-21
1.9207263702978936 3.311776077520909e-23 1.688479906531765e-15 1.6884773747727807e-15 2.5317589842955235e-21
1.979223391128241 3.322716192344512e-23 1.7456512988133014e-15 1.745647648317837e-15 3.65049546412758e-21
2.039501978296691 3.330930580038353e-23 1.80326330661643e-15 1.803258106197945e-15 5.200418485165053e-21
2.1016163906111602 3.338850721875619e-23 1.8626012168807762e-15 1.8625938943213586e-15 7.322559417605693e-21
2.1656225393682647 3.3478880545547133e-23 1.9245230795480417e-15 1.9245128847846552e-15 1.0194763386547585e-20
2.231578038680979 3.3581466401096623e-23 1.989212448522411e-15 1.989198410099779e-15 1.4038422631339635e-20
2.299542257339062 3.370472963618296e-23 2.0573191830090395e-15 2.0573000571235103e-15 1.9125885529610216e-20
2.369576372248914 3.386733953344298e-23 2.130204145558402e-15 2.1301783568314255e-15 2.5788726977182664e-20
2.4417434235010123 3.4091335526537217e-23 2.2095990512517073e-15 2.2095646260187885e-15 3.442523291890153e-20
2.5161083711144245 3.441443719616854e-23 2.298473216046582e-15 2.2984277061682483e-15 4.550987833375586e-20
2.5927381535095444 3.489834477568262e-23 2.4017783215479057e-15 2.401718720218258e-15 5.960132964806725e-20
2.6717017477616296 3.561669642834912e-23 2.525870276344831e-15 2.525792929527e-15 7.734681783051618e-20
2.753070231689431 3.6680331886242643e-23 2.680525728778412e-15 2.6804262398320625e-15 9.948894634956279e-20
2.836916847834745 3.834033676993336e-23 2.8871673833414353e-15 2.887040508123941e-15 1.268752174942881e-19
2.9233170693905177 4.114963561781797e-23 3.193091394621056e-15 3.1929309595141514e-15 1.6043510690229816e-19
2.967498994190263 4.353109397802877e-23 3.4289377037059373e-15 3.4287581455358764e-15 1.7955817006031762e-19
3.0123486681368425 4.631145916656392e-23 3.703080356288589e-15 3.702879662840609e-15 2.0069344798004721e-19
3.0578761833420214 5.252381703542129e-23 4.2632972031099115e-15 4.263073123037166e-15 2.240800727447011e-19
3.1040917844459814 6.052714977653937e-23 4.987170441126526e-15 4.98692071757969e-15 2.497235468344618e-19
3.127460860933648 6.898927011330146e-23 5.727206821269627e-15 5.726943290453556e-15 2.635308160698339e-19
3.1510058709225794 8.026255531552276e-23 6.713231560542441e-15 6.712953580769032e-15 2.7797977340667166e-19
3.162844764501044 9.075457826048653e-23 7.61931366945358e-15 7.619028190338115e-15 2.8547911546683723e-19
3.1747281389236908 1.029554714506395e-22 8.67611712121138e-15 8.675823974837865e-15 2.9314637351751176e-19
3.1986289994194426 1.3698543575151936e-22 1.163074941505556e-14 1.1630440380775486e-14 3.090342800706223e-19
3.2227097969389145 2.1719656786998905e-22 1.857990934427822e-14 1.8579583414229095e-14 3.259300491292049e-19
3.2348180950136065 2.932597006875487e-22 2.518092525141653e-14 2.5180590288930774e-14 3.3496248575562796e-19
3.240889293275058 3.501262682731698e-22 3.0120232792363654e-14 3.0119893064942913e-14 3.3972742075216256e-19
3.2469718861334385 4.1591213587443784e-22 3.5846730778755075e-14 3.584638612050743e-14 3.4465824764652073e-19
3.2714166318528037 7.668171462823678e-22 6.658817398809094e-14 6.658780890342484e-14 3.6508466609985907e-19
3.2744851364798273 7.8875324918349715e-22 6.855728616761871e-14 6.85569186621302e-14 3.67505488520939e-19
3.2775565192852394 8.113193477910354e-22 7.058484338942365e-14 7.058447344970302e-14 3.6993972062596797e-19
3.283707930232385 7.89618047143692e-22 6.882576077922826e-14 6.882538645909907e-14 3.7432012918609516e-19
3.2898708863219004 7.207961932912498e-22 6.294493239714224e-14 6.294455406541776e-14 3.783317244740751e-19
3.29141343181113 7.045662660593557e-22 6.155647126984125e-14 6.155609193009124e-14 3.793397500250306e-19
3.292184975758714 6.965914521028035e-22 6.087399476250305e-14 6.087361491796954e-14 3.798445334974784e-19
3.295272960557952 6.46254271445321e-22 5.652808256309717e-14 5.652770075032173e-14 3.8181277543478716e-19
3.3076538914384823 4.718699772181353e-22 4.1429704768287416e-14 4.142931503669501e-14 3.8973159239492683e-19
3.310756385682612 4.36378041442263e-22 3.8349485975814654e-14 3.8349094245413777e-14 3.9173040087974627e-19
3.313861789986515 4.036310874064409e-22 3.5504911338722004e-14 3.5504517601839467e-14 3.9373688254091883e-19
3.3200813396944477 3.5770754960030614e-22 3.1524358886408484e-14 3.1523960845176165e-14 3.980412323153138e-19
3.345076488085796 2.7578799066130346e-22 2.4487860155993712e-14 2.4487442959841282e-14 4.1719615243013205e-19
3.3482140837626964 2.788605486762141e-22 2.4783904642657332e-14 2.4783484852517408e-14 4.1979013992509337e-19
3.3513546224236106 2.819670657845902e-22 2.5083503915707627e-14 2.508308151840406e-14 4.223973035647939e-19
3.3576445397418455 3.0466743229374103e-22 2.7153772975639637e-14 2.715334513159774e-14 4.2784404189966755e-19
3.3702598118196083 3.883931051488383e-22 3.474596088227417e-14 3.4745521609725534e-14 4.392725486429406e-19
3.382922481734668 4.074641089770016e-22 3.658902523908952e-14 3.65885748081962e-14 4.504308933126806e-19
3.389271646505754 4.1734411626434465e-22 3.754655597244055e-14 3.7546099875609336e-14 4.560968312086281e-19
3.395632727569191 4.27990483107179e-22 3.857662735373064e-14 3.857616541719498e-14 4.61936535651509e-19
3.421196662673239 4.791101889953008e-22 4.350937848832814e-14 4.350889231983251e-14 4.861684956348502e-19
3.4276182099114902 4.688105531011718e-22 4.265394982533884e-14 4.265345819438131e-14 4.916309575232849e-19
3.4340518103208963 4.236743669961714e-22 3.8619661730974634e-14 3.861916490696658e-14 4.968240080385013e-19
3.4469541582030403 3.5939207789245057e-22 3.288315203343263e-14 3.288264518763862e-14 5.068457940213142e-19
3.472904465399547 3.413794100425774e-22 3.147020654212999e-14 3.146967668300786e-14 5.298591221360972e-19
3.4990501388274233 3.138286991939481e-22 2.914823453924276e-14 2.9147681000541495e-14 5.535387012757151e-19
3.5253949054701885 2.1577403919107466e-22 2.0191863285621466e-14 2.019128653905612e-14 5.767465653368986e-19
3.5519380250092896 1.2361367988805967e-22 1.1654706677865473e-14 1.1654106437789459e-14 6.002400760117339e-19
3.578680990867387 8.707458854338789e-23 8.271491931308118e-15 8.270865907800794e-15 6.26023507323448e-19
3.605625307711299 7.229822690782698e-23 6.919547148890845e-15 6.918893862222094e-15 6.532866687488886e-19
3.660119384959845 6.152478430843919e-23 5.977433927032338e-15 5.976722887680055e-15 7.110393522829694e-19
3.715437065384467 5.389827082289357e-23 5.31562303376551e-15 5.314850409666765e-15 7.726240987467049e-19
3.8285932144167436 5.004250305619674e-23 5.085664221518139e-15 5.084756741346481e-15 9.074801716605862e-19
3.94519561050918 4.9320234037395706e-23 5.164914101168133e-15 5.163855707627776e-15 1.058393540356213e-18
4.06534921144712 4.9887309831419515e-23 5.3834089914551e-15 5.3821827365584426e-15 1.2262548966555471e-18
4.189162171576248 5.120355234895122e-23 5.693727764551585e-15 5.692315265490442e-15 1.4124990611455955e-18
4.316745939156006 5.306825013437692e-23 6.080799582084419e-15 6.0791817981533776e-15 1.6177839310413144e-18
4.448215356677963 5.541473831221727e-23 6.54305430538998e-15 6.5412134166612565e-15 1.840888728723725e-18
4.58368876423945 5.825237688417535e-23 7.087583766771444e-15 7.0855002721422784e-15 2.0834946291658822e-18
4.723288106065518 6.164682006330477e-23 7.729022103534976e-15 7.726673541266242e-15 2.348562268733444e-18
4.867139040275056 6.57282641921123e-23 8.491713814035992e-15 8.489081861071137e-15 2.6319529648576724e-18
4.940699165968905 6.818869874979034e-23 8.942732639320289e-15 8.939950853995055e-15 2.781785325233085e-18
5.015371051989984 7.073863963593335e-23 9.417360716931351e-15 9.414423771023894e-15 2.9369459074607753e-18
5.091171501069577 7.384555978171248e-23 9.97956352347886e-15 9.976463078522864e-15 3.1004449559936017e-18
5.129500256944802 7.544097931865038e-23 1.027192421133516e-14 1.0268739947189804e-14 3.1842641453577382e-18
5.168117569889187 7.710432662533871e-23 1.0577439906155159e-14 1.0574169826666318e-14 3.2700794888425825e-18
5.20702561229733 7.914189313342196e-23 1.0938696723518219e-14 1.0935334045922133e-14 3.3626775960892606e-18
5.246226572918644 8.123187322481068e-23 1.1312092408067016e-14 1.130863540887194e-14 3.4569991950743382e-18
5.265937586045735 8.229704423669727e-23 1.150348360566609e-14 1.149997879631754e-14 3.504809348557398e-18
5.285722656980489 8.337595876891311e-23 1.1698081586870663e-14 1.1694528532866827e-14 3.5530540038352315e-18
5.305582063971359 8.446883983576742e-23 1.1895946399402085e-14 1.1892344665056367e-14 3.601734345723068e-18
5.3255160863122235 8.564234200174853e-23 1.210652962350605e-14 1.210287849055936e-14 3.651132946689936e-18
5.365609099470188 8.855994026714494e-23 1.2613214396779584e-14 1.2609460947490791e-14 3.753449288794861e-18
5.406003951863644 9.158872418868715e-23 1.3142797041216486e-14 1.3138939354515692e-14 3.857686700792469e-18
5.446702915881641 9.473405822734231e-23 1.369648931191005e-14 1.3692525453061479e-14 3.963858848569726e-18
5.487708281020852 9.813169896189203e-23 1.4294526290581266e-14 1.4290453972085995e-14 4.072318495270987e-18
5.529022354014368 1.0284455999372832e-22 1.509381780215566e-14 1.5089632057939835e-14 4.1857442158290196e-18
5.570647458961463 1.0783467675883747e-22 1.594533135798499e-14 1.5941030023621604e-14 4.301334363385858e-18
5.612585937458331 1.1312196682398494e-22 1.6853083957586915e-14 1.6848664849668364e-14 4.419107918552102e-18
5.654840148729818 1.1893210086004616e-22 1.785208131345184e-14 1.7847541793269333e-14 4.539520182509875e-18
5.67608639626678 1.22883918043794e-22 1.8514563617645304e-14 1.8509961151562797e-14 4.6024660825080826e-18
5.686739436050992 1.2492073763013833e-22 1.8856769940653444e-14 1.885213577081327e-14 4.634169840169714e-18
5.6974124697621304 1.2699945852448674e-22 1.9206532439653927e-14 1.9201866411645633e-14 4.666028008302701e-18
5.718818669136295 1.3128663536221461e-22 1.9929494242668937e-14 1.9924764033471948e-14 4.730209196984794e-18
5.740305295436557 1.3601106269994605e-22 2.0724242131730698e-14 2.071944673653127e-14 4.79539519942541e-18
5.7835210386641895 1.4825844430830426e-22 2.276046819640152e-14 2.2755537531098766e-14 4.930665302761528e-18
5.827062130521658 1.6236296328629185e-22 2.5113431039597947e-14 2.510836144236912e-14 5.06959722882474e-18
5.8489554468988025 1.7225131351941959e-22 2.6743010117425002e-14 2.6737865946933798e-14 5.144170491196859e-18
5.870931020387893 1.8286133815902206e-22 2.849694500987866e-14 2.8491725442086176e-14 5.21956779247835e-18
5.892989160043636 1.9425109117882457e-22 3.038565078887987e-14 3.038035499356367e-14 5.295795316196601e-18
5.915130176081913 2.0720230612180098e-22 3.253331546995885e-14 3.252794074037994e-14 5.374729578918754e-18
5.95966208400165 2.4340072913823963e-22 3.8504629036461195e-14 3.849907750253577e-14 5.5515339254207076e-18
6.004529249263818 2.955590789465371e-22 4.71077869500949e-14 4.710203786762791e-14 5.7490824669984845e-18
6.027089341400364 3.318088945275281e-22 5.308417666771164e-14 5.3078314975212526e-14 5.861692499113262e-18
6.049734195844842 3.746421215818375e-22 6.016200908577796e-14 6.015602833411498e-14 5.980751662983772e-18
6.095279466722835 4.983536604217362e-22 8.063075162766319e-14 8.062448370923396e-14 6.267918429223519e-18
6.141167624020661 6.88718396732549e-22 1.1226957239560031e-13 1.1226293847482471e-13 6.633920775634982e-18
6.164241091010745 8.102842274611945e-22 1.3258257039145982e-13 1.3257571009910476e-13 6.86029235504941e-18
6.187401249150058 9.487570124538906e-22 1.5582341304193405e-13 1.5581631920057557e-13 7.093841358528259e-18
6.1990139391386085 1.0163725698674687e-21 1.6724185718083768e-13 1.672346442689674e-13 7.212911870315162e-18
6.204828454712694 1.0519890926700815e-21 1.7326484285977406e-13 1.7325756969047684e-13 7.273169297150494e-18
6.210648424152782 1.077992086622299e-21 1.7771412638684142e-13 1.7770680104645678e-13 7.32534038462295e-18
6.233982942956859 1.1663416879429974e-21 1.9300156978299521e-13 1.9299405892505357e-13 7.510857941606332e-18
6.239830258556775 1.1776400777510243e-21 1.9505396641212077e-13 1.9504642712879888e-13 7.53928332185871e-18
6.245683058788269 1.1786283500806023e-21 1.9540076430438322e-13 1.9539319650772246e-13 7.567796660763163e-18
6.257405133728602 1.1762209895120212e-21 1.9536764086064808e-13 1.9536002156631878e-13 7.619294329314226e-18
6.269149208991335 1.1588709734133028e-21 1.9284710538787762e-13 1.928394595600734e-13 7.645827804292108e-18
6.280915325867298 1.1153329686268778e-21 1.859503120872301e-13 1.859426707240992e-13 7.64136313094958e-18
6.304513850009849 1.0079560097313252e-21 1.6867962031403282e-13 1.6867201604750335e-13 7.604266529383194e-18
6.32820103803542 8.748536273023846e-22 1.4695524715150915e-13 1.4694770997740934e-13 7.537174099799641e-18
6.3519772230701035 7.527919234959022e-22 1.2692679566499328e-13 1.2691931609082965e-13 7.479574163612205e-18
6.375842739491607 6.50104644381168e-22 1.1002472667249433e-13 1.1001729504235493e-13 7.431630139440623e-18
6.399797922933955 5.678174017473103e-22 9.645936359397717e-14 9.645194375736553e-14 7.419836611664515e-18
6.42384311029221 4.994066028987761e-22 8.515666381572686e-14 8.514924853396174e-14 7.415281765129206e-18
6.447978639727206 4.49567850906328e-22 7.694639364470012e-14 7.693895436069161e-14 7.439284008537632e-18
6.472204850670314 4.0805564058213554e-22 7.010372146724217e-14 7.009625229416328e-14 7.469173078866375e-18
6.496522083828205 3.8109321584262103e-22 6.571758109849926e-14 6.571005857021215e-14 7.522528287112709e-18
