Dust emission spectrum from A.P. Jones, M. Kohler, N. Ysard, M. Bocchio, and L. Verstraete (2017), A&A, 602A, 46J 
inside the DustPedia framework.

lambda    nu*dP/dnu     j_nu    j_nu(carb.) j_nu(sil)
 (um)   (erg s-1 H-1) (Jy cm2 sr-1 H-1)
0.9927057738263894 9.22060707837247e-23 2.429682337153811e-15 2.429682217531934e-15 1.1962187693653273e-22
1.0001793341362166 9.375825294081901e-23 2.4891829418881983e-15 2.4891827978965373e-15 1.439916615264619e-22
1.0077091589558085 9.531525498619388e-23 2.5495706611765044e-15 2.5495704880794543e-15 1.7309705074598358e-22
1.0114953028030835 9.609547025933686e-23 2.580098105055626e-15 2.5800979153631725e-15 1.8969245247264102e-22
1.0152956718711033 9.687677972932345e-23 2.610848441161437e-15 2.610848233351442e-15 2.0780999538804629e-22
1.0229392996569957 9.84417789546207e-23 2.6729987161239462e-15 2.6729984669672228e-15 2.491567229020945e-22
1.0267826658714554 9.922367578890824e-23 2.704352336500756e-15 2.7043520638070067e-15 2.726937499908697e-22
1.0306404723013447 1.0000648739908083e-22 2.7359288521030157e-15 2.735928553747741e-15 2.9835527414043096e-22
1.03451277320114 1.0079018043069015e-22 2.767728673349175e-15 2.767728347025771e-15 3.26323404060129e-22
1.0383996230291617 1.0157472219742252e-22 2.7997522224820548e-15 2.7997518656870863e-15 3.567949682025615e-22
1.0403485208654093 1.0196730132927069e-22 2.815848030379138e-15 2.8158476573437943e-15 3.7303534405947887e-22
1.0423010764483396 1.0236008069974587e-22 2.8319999343379235e-15 2.831999544355298e-15 3.899826269505152e-22
1.0462171883269815 1.031462246434572e-22 2.864472257127557e-15 2.864471831011494e-15 4.261160624623527e-22
1.0471985131304309 1.0334287975596391e-22 2.872625487145573e-15 2.8726250515072347e-15 4.356383376702051e-22
1.048180758391296 1.0353958157379917e-22 2.880792791540396e-15 2.880792346176208e-15 4.453641879323934e-22
1.0501480137395462 1.0393312345812444e-22 2.8971696532291956e-15 2.8971691877859438e-15 4.654432511065646e-22
1.0521189612883777 1.0432684659122544e-22 2.9136029023369406e-15 2.9136024159496093e-15 4.863873306478714e-22
1.0531058218030118 1.0452350787292155e-22 2.9218332245360084e-15 2.921832727340528e-15 4.971954794649731e-22
1.0540936079674168 1.0471933799355788e-22 2.930053167085802e-15 2.930052658850102e-15 5.082356994986921e-22
1.058054026499678 1.0550305317727398e-22 2.963072687102787e-15 2.963072132314262e-15 5.547885255868605e-22
1.0590464539527713 1.056990784598363e-22 2.9713625431505047e-15 2.971361976101444e-15 5.670490608711858e-22
1.06003981227728 1.058951414725367e-22 2.9796664052895467e-15 2.9796658257209563e-15 5.795685903978276e-22
1.0620293250338977 1.0628737898460163e-22 2.996316179746265e-15 2.9963155743407384e-15 6.0540552639456e-22
1.0660195594769086 1.070722882083824e-22 3.0297841567152543e-15 3.0297834962924755e-15 6.604227788571432e-22
1.070024785945596 1.0785775446534168e-22 3.0634771482508098e-15 3.0634764280483207e-15 7.202024889778034e-22
1.0740450607676866 1.0864375221364875e-22 3.09739570400084e-15 3.0973949188659564e-15 7.851348840011165e-22
1.07808044048254 1.094302567703289e-22 3.1315403938962648e-15 3.1315395382560337e-15 8.556402306175581e-22
1.0861967418109137 1.1100346019174844e-22 3.2004750475767017e-15 3.2004740323624867e-15 1.0152142145899816e-21
1.0902777775684922 1.1178731316236334e-22 3.2351849320291673e-15 3.2351838267351954e-15 1.1052939722987731e-21
1.0943741465085532 1.1257153426213692e-22 3.2701211537039183e-15 3.270119950730501e-15 1.2029734173310993e-21
1.1026131145906286 1.1414100227340618e-22 3.34067531924127e-15 3.340673895641819e-15 1.42359945102112e-21
1.1109141095355224 1.157117168531849e-22 3.4121432307789793e-15 3.4121415482789887e-15 1.6824999896922456e-21
1.1192775983109025 1.1728228294163445e-22 3.4844934767547798e-15 3.4844914908428356e-15 1.9859119440139806e-21
1.1277040513999907 1.1884677691274642e-22 3.557557940819523e-15 3.55755559980087e-15 2.341018652463202e-21
1.1361939428280308 1.204119852627925e-22 3.631546584141976e-15 3.631543828060084e-15 2.756081892759224e-21
1.1447477501889525 1.2197782959258092e-22 3.7064669608331896e-15 3.706463720241998e-15 3.24059119206277e-21
1.1533659546722406 1.235448522062757e-22 3.782345654650689e-15 3.782341849213753e-15 3.805436935783911e-21
1.1707974979042381 1.2668721938104454e-22 3.937168689846451e-15 3.937163461967287e-15 5.227879164074201e-21
1.1884924949847024 1.298336838456836e-22 4.095936889943687e-15 4.095929743819491e-15 7.14612419632961e-21
1.2064549276569216 1.3300598867489794e-22 4.259432403254028e-15 4.2594226831555434e-15 9.720098484045797e-21
1.2246888378427687 1.36181617167052e-22 4.427042382953609e-15 4.4270292264141695e-15 1.315653944035504e-20
1.2431983285522175 1.3935737738982927e-22 4.598750152343051e-15 4.598732430584769e-15 1.7721758281191686e-20
1.2619875648066055 1.4253717483937133e-22 4.774772184299028e-15 4.77474842724085e-15 2.3757058179097602e-20
1.3004222497298317 1.4888546292266018e-22 5.139325446546537e-15 5.139283352889616e-15 4.209365692304374e-20
1.3400274889804893 1.552414523512438e-22 5.521929246105954e-15 5.521856027983824e-15 7.321812212958667e-20
1.3808389325824078 1.616252740952405e-22 5.9240911332360425e-15 5.923966049290194e-15 1.2508394584556738e-19
1.4228933163050095 1.680915242567653e-22 6.348740673259985e-15 6.3485306921809335e-15 2.099810790494312e-19
1.466228494730424 1.747616101497594e-22 6.801694565854184e-15 6.801348011627502e-15 3.4655422668276317e-19
1.5108834753276823 1.816187688570257e-22 7.283852317429287e-15 7.283289761411794e-15 5.625560174934885e-19
1.5568984535646726 1.8865726782824399e-22 7.796564227511654e-15 7.795665101659666e-15 8.991258519863996e-19
1.6043148490894465 1.9592742235497069e-22 8.343615095359085e-15 8.342197529375532e-15 1.4175659835556223e-18
1.6531753430134553 2.0348496766046025e-22 8.929367220785104e-15 8.927165192890391e-15 2.2020278947116545e-18
1.7035239163302658 2.11398872571527e-22 9.5591732983121e-15 9.555802281027188e-15 3.371017284907177e-18
1.755405889504358 2.198509944325483e-22 1.0244137958902206e-14 1.023904964006615e-14 5.0883188360544956e-18
1.8088679632656115 2.2886032476843826e-22 1.098871247530232e-14 1.0981136897597855e-14 7.575577704464332e-18
1.8639582606462262 2.384485583665781e-22 1.1797780646384568e-14 1.1786651626723155e-14 1.112901966141407e-17
1.9207263702978936 2.486780965886688e-22 1.2678634045779076e-14 1.2662495654932861e-14 1.613839084621331e-17
1.979223391128241 2.59633210784107e-22 1.3640317902100002e-14 1.3617208320077156e-14 2.3109582022843987e-17
2.039501978296691 2.7139942731427616e-22 1.469272976283138e-14 1.466004044031642e-14 3.268932251495878e-17
2.1016163906111602 2.84154409001982e-22 1.585175235662561e-14 1.5806056215947496e-14 4.5696140678112514e-17
2.1656225393682647 2.9801668875745186e-22 1.7131397055642742e-14 1.7068248892039267e-14 6.314816360347594e-17
2.231578038680979 3.130172983328582e-22 1.8541712830808407e-14 1.8455418346483442e-14 8.629448432496722e-17
2.299542257339062 3.2923747212579093e-22 2.009648421694038e-14 1.9979836147179737e-14 1.1664806976064028e-16
2.369576372248914 3.4679990062045507e-22 2.1813186277931207e-14 2.165716536317617e-14 1.5602091475503231e-16
2.4417434235010123 3.658422451971275e-22 2.3711733946771435e-14 2.350518282035802e-14 2.0655112641340447e-16
2.5161083711144245 3.8657691028264584e-22 2.581871873022021e-14 2.5547980324369283e-14 2.7073840585092466e-16
2.5927381535095444 4.0931342790823153e-22 2.8169820780539375e-14 2.7818354456377306e-14 3.5146632416206405e-16
2.6717017477616296 4.3434836196121095e-22 3.080318297526453e-14 3.035118296367888e-14 4.52000011585646e-16
2.753070231689431 4.620847317944552e-22 3.376823351250186e-14 3.3192240076375685e-14 5.759934361261717e-16
2.836916847834745 4.93450318748429e-22 3.7158611155109454e-14 3.643110185911182e-14 7.275092959976482e-16
2.9233170693905177 5.303890206959974e-22 4.115663704814315e-14 4.0245812512830935e-14 9.108245353122205e-16
2.967498994190263 5.527026164261551e-22 4.353630169177715e-14 4.2522373987755774e-14 1.013927704021366e-15
3.0123486681368425 5.767458714698156e-22 4.611680015369463e-14 4.4989585703151337e-14 1.127214450543303e-15
3.0578761833420214 6.1354249646434e-22 4.980053158363364e-14 4.8548653977132344e-14 1.2518776065013019e-15
3.1040917844459814 6.563902656799461e-22 5.408366564306735e-14 5.269607206957463e-14 1.3875935734927178e-15
3.127460860933648 6.937030244288135e-22 5.758838565648287e-14 5.612810471242893e-14 1.4602809440539274e-15
3.1510058709225794 7.4051075055479025e-22 6.193697823353445e-14 6.040091514900127e-14 1.5360630845331736e-15
3.162844764501044 7.813705238859616e-22 6.560007470327806e-14 6.402478812416535e-14 1.5752865791126934e-15
3.1747281389236908 8.276023357297474e-22 6.974252745782354e-14 6.81272156347039e-14 1.6153118231196318e-15
3.1986289994194426 9.520705762673515e-22 8.083555917651843e-14 7.913754283110502e-14 1.6980163454134006e-15
3.2227097969389145 1.2354655505063746e-21 1.056869275214684e-13 1.0390125783344338e-13 1.785669688025002e-15
3.2348180950136065 1.4999747695290295e-21 1.2879625963597294e-13 1.2696380894224365e-13 1.8324506937292858e-15
3.240889293275058 1.6970365902370376e-21 1.4599058050456933e-13 1.4413345393354054e-13 1.8571265710288337e-15
3.2469718861334385 1.925160347377739e-21 1.659261625854997e-13 1.6404350358613537e-13 1.8826589993643555e-15
3.2714166318528037 3.1251092386408057e-21 2.7137541032210663e-13 2.6938722441736787e-13 1.988185904738684e-15
3.2744851364798273 3.2005015206477806e-21 2.7818294106310933e-13 2.7618231469252225e-13 2.000626370587072e-15
3.2775565192852394 3.2779296938634154e-21 2.8518012631258384e-13 2.83166996897384e-13 2.013129415199851e-15
3.283707930232385 3.2057459979128713e-21 2.7942358709940773e-13 2.773880891610251e-13 2.0354979383825433e-15
3.2898708863219004 2.9731221799009952e-21 2.5963368891807407e-13 2.5757782603639436e-13 2.055862881679729e-15
3.29141343181113 2.9181837920825834e-21 2.5495557396203083e-13 2.5289459712316436e-13 2.0609768388664242e-15
3.292184975758714 2.8911770991909294e-21 2.5265526739142865e-13 2.505917301614176e-13 2.0635372300110856e-15
3.295272960557952 2.7219411469209928e-21 2.380891247974672e-13 2.360156265575718e-13 2.073498239895405e-15
3.3076538914384823 2.1323886998238164e-21 1.8722156218913948e-13 1.8510805156557185e-13 2.11351062356765e-15
3.310756385682612 2.011505555481428e-21 1.7677379878064898e-13 1.746502018574271e-13 2.123596923221898e-15
3.313861789986515 1.899625326350486e-21 1.6709820153408878e-13 1.64964484964816e-13 2.133716569272781e-15
3.3200813396944477 1.7436691624491624e-21 1.536675770965155e-13 1.515120981034551e-13 2.155478993060424e-15
3.345076488085796 1.4733898270214683e-21 1.308257257788853e-13 1.2857327535409914e-13 2.2524504247861363e-15
3.3482140837626964 1.4851859391563998e-21 1.3199682374363536e-13 1.2973123750154372e-13 2.2655862420916135e-15
3.3513546224236106 1.4970901430346994e-21 1.331796192597414e-13 1.30900837561995e-13 2.2787816977463767e-15
3.3576445397418455 1.5775034682956218e-21 1.4059648819006194e-13 1.38290119471759e-13 2.306368718302935e-15
3.3702598118196083 1.867472267321052e-21 1.6706557734644484e-13 1.647013429455974e-13 2.3642344008474498e-15
3.382922481734668 1.9385120929777574e-21 1.7407243075793646e-13 1.7165192833139404e-13 2.4205024265424563e-15
3.389271646505754 1.975143039835743e-21 1.7769465486317403e-13 1.7524562763802242e-13 2.4490272251516013e-15
3.395632727569191 2.015169790293809e-21 1.8163594080476838e-13 1.791575169065586e-13 2.4784238982097108e-15
3.421196662673239 2.2078627997246533e-21 2.0050239049385352e-13 1.9790225226602451e-13 2.6001382278289944e-15
3.4276182099114902 2.1751104766969847e-21 1.978988154679621e-13 1.9527148884817322e-13 2.6273266197888518e-15
3.4340518103208963 2.021897310943554e-21 1.8430425885102671e-13 1.8165120422074567e-13 2.6530546302810482e-15
3.4469541582030403 1.8031633247473737e-21 1.649833076357393e-13 1.6228084592673573e-13 2.702461709003576e-15
3.472904465399547 1.7478901537510834e-21 1.61129999447364e-13 1.5831376345682225e-13 2.816235990541794e-15
3.4990501388274233 1.6608406617059695e-21 1.5425795430455107e-13 1.513252348544077e-13 2.9327194501433464e-15
3.5253949054701885 1.3352142330023557e-21 1.2494766910270035e-13 1.219016953921384e-13 3.0459737105619606e-15
3.5519380250092896 1.0261284540181338e-21 9.674678527670065e-14 9.358690763773005e-14 3.1598776389705862e-15
3.578680990867387 9.093463754754385e-22 8.63817025533397e-14 8.309697275044023e-14 3.2847298028994418e-15
3.605625307711299 8.682482629634034e-22 8.309864639111133e-14 7.968238137836547e-14 3.4162650127458606e-15
3.660119384959845 8.51178950126497e-22 8.269620107817266e-14 7.900340529948595e-14 3.692795778686705e-15
3.715437065384467 8.44471162052948e-22 8.328449673477649e-14 7.929991796855604e-14 3.9845787662204396e-15
3.8285932144167436 8.716004695953554e-22 8.857804971709166e-14 8.396544662106107e-14 4.612603096030581e-15
3.94519561050918 9.102385496468334e-22 9.532201158926224e-14 9.002322130059084e-14 5.298790288671388e-15
4.06534921144712 9.538595056297686e-22 1.0293230596206915e-13 9.688966813237414e-14 6.04263782969503e-15
4.189162171576248 1.0004357692698743e-21 1.1124636191885387e-13 1.0440057470618399e-13 6.845787212669885e-15
4.316745939156006 1.0490073361816764e-21 1.2019999444686653e-13 1.1249445951573089e-13 7.705534931135627e-15
4.448215356677963 1.0989978387569423e-21 1.2976335826000894e-13 1.2115307615019803e-13 8.610282109810931e-15
4.58368876423945 1.150185652815449e-21 1.399434254481511e-13 1.3038210555924353e-13 9.561319888907525e-15
4.723288106065518 1.2025590668498705e-21 1.507718581257633e-13 1.402071180967296e-13 1.0564740029033691e-14
4.867139040275056 1.256045380122979e-21 1.622738411936696e-13 1.5067935025753582e-13 1.1594490936133772e-14
4.940699165968905 1.2837239778670718e-21 1.6835634829862828e-13 1.5623397428675527e-13 1.2122374011872975e-14
5.015371051989984 1.311211102397054e-21 1.7456015539554904e-13 1.6190281735354094e-13 1.2657338042008117e-14
5.091171501069577 1.3402963277007214e-21 1.811289992534823e-13 1.6791819705719892e-13 1.3210802196283437e-14
5.129500256944802 1.354738574548547e-21 1.8445905779081889e-13 1.7096938645161032e-13 1.3489671339208527e-14
5.168117569889187 1.3692778215797905e-21 1.878422976568944e-13 1.740696949466847e-13 1.3772602710209707e-14
5.20702561229733 1.385208791633206e-21 1.9145838279205717e-13 1.773772099266779e-13 1.4081172865379282e-14
5.246226572918644 1.4011152418619696e-21 1.951148540724878e-13 1.807228678092277e-13 1.4391986263260032e-14
5.265937586045735 1.4090587343656772e-21 1.9695827718401033e-13 1.8241008022360745e-13 1.4548196960402876e-14
5.285722656980489 1.4169954789475986e-21 1.988118513503238e-13 1.8410692786946592e-13 1.470492348085783e-14
5.305582063971359 1.4249252986256895e-21 2.006755983456229e-13 1.85813447849788e-13 1.4862150495834944e-14
5.3255160863122235 1.4331073128093028e-21 2.0258619428967456e-13 1.8756510090664084e-13 1.502109338303369e-14
5.365609099470188 1.4514658524542273e-21 2.06726087793011e-13 1.9137614860451325e-13 1.5349939188497765e-14
5.406003951863644 1.4699176608912766e-21 2.109302171803803e-13 1.9524912256678393e-13 1.5681094613596375e-14
5.446702915881641 1.488469326431946e-21 2.152003682947578e-13 1.9918593045204938e-13 1.6014437842708464e-14
5.487708281020852 1.5076226851978193e-21 2.1961050647055306e-13 2.032592520046452e-13 1.635125446590784e-14
5.529022354014368 1.5313063126096916e-21 2.24739728413744e-13 2.0803732242581357e-13 1.6702405987930453e-14
5.570647458961463 1.5554679742936262e-21 2.300044198427376e-13 2.1294844138824365e-13 1.7055978454493868e-14
5.612585937458331 1.5801482463646901e-21 2.35412907051502e-13 2.1800105886488678e-13 1.7411848186615186e-14
5.654840148729818 1.6061411844814322e-21 2.4108682869385623e-13 2.2331519605112776e-13 1.7771632642728502e-14
5.67608639626678 1.6226945891429828e-21 2.4448668858352573e-13 2.2652679715683967e-13 1.795989142668609e-14
5.686739436050992 1.6311022495268507e-21 2.462146834265061e-13 2.2816040979773003e-13 1.8054273628776087e-14
5.6974124697621304 1.6396001749348678e-21 2.4796195443523895e-13 2.2981313264288476e-13 1.8148821792354178e-14
5.718818669136295 1.6568760526282718e-21 2.515160942358556e-13 2.3317768602763896e-13 1.8338408208216573e-14
5.740305295436557 1.6754797904654486e-21 2.5529576914658677e-13 2.367657197310438e-13 1.853004941554305e-14
5.7835210386641895 1.7217759710140116e-21 2.6432509401016107e-13 2.453988512040155e-13 1.8926242806145547e-14
5.827062130521658 1.773063935593171e-21 2.74248005666183e-13 2.5491919015353924e-13 1.9328815512643714e-14
5.8489554468988025 1.8081183794386475e-21 2.807208091877823e-13 2.611745167979925e-13 1.9546292389789762e-14
5.870931020387893 1.8449787143860978e-21 2.8751980871175323e-13 2.6775500436483555e-13 1.976480434691769e-14
5.892989160043636 1.8837878723003487e-21 2.946707794570432e-13 2.7468644231472055e-13 1.998433714232261e-14
5.915130176081913 1.927277298208658e-21 3.0260628616678845e-13 2.823943528778497e-13 2.021193328893875e-14
5.95966208400165 2.0470108926888037e-21 3.238256324688828e-13 3.030944086777902e-13 2.0731223791092622e-14
6.004529249263818 2.215564329053171e-21 3.5312849383370167e-13 3.318125119252529e-13 2.1315981908448734e-14
6.027089341400364 2.33146733869051e-21 3.7299790977055503e-13 3.5134371011392393e-13 2.1654199656631074e-14
6.049734195844842 2.466555682940493e-21 3.960925290009816e-13 3.740799864981777e-13 2.2012542502803936e-14
6.095279466722835 2.853448928084752e-21 4.61671600059925e-13 4.3877704193107606e-13 2.2894558128848868e-14
6.141167624020661 3.44009296417479e-21 5.607774787508652e-13 5.36736677367924e-13 2.4040801382941323e-14
6.164241091010745 3.813562215274415e-21 6.239932405361376e-13 5.992322943981242e-13 2.4760946138013614e-14
6.187401249150058 4.232841569237892e-21 6.951999421627249e-13 6.696995530485701e-13 2.550038911415473e-14
6.1990139391386085 4.4367862726471496e-21 7.300633627378511e-13 7.041867289402637e-13 2.5876633797587268e-14
6.204828454712694 4.5436907480275865e-21 7.483555380429263e-13 7.222888708323034e-13 2.606666721062274e-14
6.210648424152782 4.621404746092025e-21 7.618691429406619e-13 7.356407313160464e-13 2.6228411624615364e-14
6.233982942956859 4.8826607374365645e-21 8.079632210566323e-13 7.811715836106173e-13 2.6791637446014945e-14
6.239830258556775 4.914568084103383e-21 8.140059226223532e-13 7.871366482271741e-13 2.6869274395179004e-14
6.245683058788269 4.9152898060439195e-21 8.148890910462518e-13 7.879420572479325e-13 2.69470337983194e-14
6.257405133728602 4.9033668826475164e-21 8.144381274257857e-13 7.873552913793778e-13 2.7082836046408088e-14
6.269149208991335 4.846122001676193e-21 8.064405976336911e-13 7.793093217087478e-13 2.7131275924943297e-14
6.280915325867298 4.709766975306093e-21 7.85220793746016e-13 7.581490989904043e-13 2.7071694755611737e-14
6.304513850009849 4.3765289874079615e-21 7.324042326868133e-13 7.055494284860904e-13 2.6854804200722846e-14
6.32820103803542 3.969241702021603e-21 6.667411291683991e-13 6.402071951250618e-13 2.6533934043337292e-14
6.3519772230701035 3.597693924495072e-21 6.066002402084212e-13 5.803540864833155e-13 2.6246153725105445e-14
6.375842739491607 3.2840417015983304e-21 5.557963532830535e-13 5.298040487030838e-13 2.5992304579969626e-14
6.399797922933955 3.036164121052731e-21 5.157757722507149e-13 4.899139827707827e-13 2.586178947993228e-14
6.42384311029221 2.829220767177714e-21 4.824265444881563e-13 4.566706994247381e-13 2.5755845063418307e-14
6.447978639727206 2.6799736604818308e-21 4.586945170148069e-13 4.329484265210341e-13 2.5746090493772982e-14
6.472204850670314 2.555332254537293e-21 4.3900459352254545e-13 4.132491716902779e-13 2.575542183226745e-14
