Dust emission spectrum from A.P. Jones, M. Kohler, N. Ysard, M. Bocchio, and L. Verstraete (2017), A&A, 602A, 46J 
inside the DustPedia framework.

lambda    nu*dP/dnu     j_nu    j_nu(carb.) j_nu(sil)
 (um)   (erg s-1 H-1) (Jy cm2 sr-1 H-1)
0.9927057738263894 4.396639215714532e-24 1.158539405752982e-16 1.1585394057474086e-16 5.5732020010805035e-28
1.0001793341362166 4.468874570551713e-24 1.1864391668514487e-16 1.1864391668447333e-16 6.715581721454929e-28
1.0077091589558085 4.540997346794742e-24 1.2146632361782175e-16 1.2146632361701353e-16 8.081878067450921e-28
1.0114953028030835 4.5770076605921165e-24 1.2288954682306058e-16 1.228895468221744e-16 8.861750972276809e-28
1.0152956718711033 4.6129792305951e-24 1.2432070581784406e-16 1.243207058168727e-16 9.713782939846091e-28
1.0229392996569957 4.684756659285498e-24 1.2720563025781712e-16 1.2720563025665106e-16 1.1660457349404252e-27
1.0267826658714554 4.720475083836741e-24 1.2865707424028456e-16 1.2865707423900757e-16 1.2769855597660425e-27
1.0306404723013447 4.756139020867638e-24 1.3011613856487028e-16 1.3011613856347225e-16 1.3980330147606794e-27
1.03451277320114 4.791745042614133e-24 1.3158276027635336e-16 1.315827602748233e-16 1.5300646898453699e-27
1.0383996230291617 4.827289741165227e-24 1.330568756577423e-16 1.3305687565606826e-16 1.6740290517501384e-27
1.0403485208654093 4.845038034859497e-24 1.337967233585577e-16 1.3379672335680692e-16 1.750803392141036e-27
1.0423010764483396 4.862769729114473e-24 1.3453842024556772e-16 1.3453842024373675e-16 1.830951971141632e-27
1.0462171883269815 4.8981816401969266e-24 1.3602732884519246e-16 1.360273288431905e-16 2.0019426442276654e-27
1.0471985131304309 4.907023588536423e-24 1.3640069891356763e-16 1.3640069891152058e-16 2.047026825579287e-27
1.048180758391296 4.9158610208896374e-24 1.3677452407994746e-16 1.367745240778544e-16 2.0930843481840846e-27
1.0501480137395462 4.9335221299114056e-24 1.3752353554613284e-16 1.3752353554394463e-16 2.1881999346013403e-27
1.0521189612883777 4.951164552699863e-24 1.3827435489560169e-16 1.3827435489331426e-16 2.2874543857494744e-27
1.0531058218030118 4.959964995277769e-24 1.386500588303791e-16 1.386500588280404e-16 2.338690278857663e-27
1.0540936079674168 4.968715948423561e-24 1.3902496119602863e-16 1.3902496119363757e-16 2.3910367976927375e-27
1.058054026499678 5.003668636163272e-24 1.4052895555748623e-16 1.4052895555487436e-16 2.6118813704409676e-27
1.0590464539527713 5.012393772655041e-24 1.4090604501577882e-16 1.4090604501310878e-16 2.670075210578558e-27
1.06003981227728 5.0211135936125944e-24 1.4128356866976971e-16 1.4128356866704018e-16 2.7295109629763447e-27
1.0620293250338977 5.0385370869870705e-24 1.4203991424210541e-16 1.4203991423925316e-16 2.852209659150305e-27
1.0660195594769086 5.073318071507552e-24 1.4355776804840342e-16 1.435577680452898e-16 3.1136536772551437e-27
1.070024785945596 5.108008385616184e-24 1.4508244715438614e-16 1.4508244715098815e-16 3.3979743231621175e-27
1.0740450607676866 5.142604851007911e-24 1.4661388113291512e-16 1.466138811292081e-16 3.707070894297619e-27
1.07808044048254 5.177104315691109e-24 1.4815199896704634e-16 1.4815199896300335e-16 4.042991250261077e-27
1.0861967418109137 5.245738428997239e-24 1.5124623069513906e-16 1.512462306903348e-16 4.8043040863902434e-27
1.0902777775684922 5.27972743075585e-24 1.5279814986154628e-16 1.5279814985631162e-16 5.2346382176657584e-27
1.0943741465085532 5.313604673875604e-24 1.5435634914594063e-16 1.5435634914023891e-16 5.701701877087332e-27
1.1026131145906286 5.38101193210838e-24 1.5749129056251099e-16 1.574912905557529e-16 6.758118677324862e-27
1.1109141095355224 5.447936597530136e-24 1.6065045518736386e-16 1.6065045517936372e-16 8.000109058478437e-27
1.1192775983109025 5.514293014709928e-24 1.6383137807978468e-16 1.638313780703263e-16 9.458373866257448e-27
1.1277040513999907 5.579771342509863e-24 1.6702480591523896e-16 1.6702480590407054e-16 1.1168360519448969e-26
1.1361939428280308 5.644690362675285e-24 1.702401630566486e-16 1.7024016304347769e-16 1.3170935692120916e-26
1.1447477501889525 5.709028644219793e-24 1.7347682049212332e-16 1.7347682047661013e-16 1.551315784111365e-26
1.1533659546722406 5.7728006187987085e-24 1.767352256751412e-16 1.7673522565689203e-16 1.8249168640763887e-26
1.1707974979042381 5.898854868822368e-24 1.8332383336649908e-16 1.8332383334133849e-16 2.5160630474868886e-26
1.1884924949847024 6.022374751462698e-24 1.899912732885272e-16 1.8999127325400767e-16 3.451950392651087e-26
1.2064549276569216 6.144336284337505e-24 1.9676847130520162e-16 1.967684712580712e-16 4.7130425241965503e-26
1.2246888378427687 6.263400563383019e-24 2.0361294227765113e-16 2.0361294221361192e-16 6.403916261170644e-26
1.2431983285522175 6.379290734657199e-24 2.105146120522967e-16 2.105146119656964e-16 8.660030154502536e-26
1.2619875648066055 6.491966131885306e-24 2.1747070083905717e-16 2.1747070072249767e-16 1.1655946477135718e-25
1.3004222497298317 6.705801085773893e-24 2.314752124423284e-16 2.3147521223409347e-16 2.0823491430702373e-25
1.3400274889804893 6.904091419276158e-24 2.4557812200592136e-16 2.455781216406113e-16 3.653100735190854e-25
1.3808389325824078 7.086126624646086e-24 2.597295512168284e-16 2.597295505872196e-16 6.296088053650648e-25
1.4228933163050095 7.252830793794314e-24 2.739361312858177e-16 2.739361302192383e-16 1.0665794138453655e-24
1.466228494730424 7.408275532018315e-24 2.883289263889221e-16 2.8832892461209603e-16 1.7768261190399695e-24
1.5108834753276823 7.549449116616522e-24 3.027719700416556e-16 3.0277196712948103e-16 2.9121745146365922e-24
1.5568984535646726 7.67392508184571e-24 3.171372641322938e-16 3.171372594316265e-16 4.700667309399152e-24
1.6043148490894465 7.781968042850604e-24 3.3139692878873335e-16 3.3139692130256795e-16 7.486165439110193e-24
1.6531753430134553 7.873945123351746e-24 3.455260026875186e-16 3.4552599093771077e-16 1.1749807781791166e-23
1.7035239163302658 7.950988949173311e-24 3.5953304922378783e-16 3.5953303104429396e-16 1.8179493816155084e-23
1.755405889504358 8.019463359714054e-24 3.736734929278524e-16 3.736734651861564e-16 2.774169606002289e-23
1.8088679632656115 8.077847135654642e-24 3.878572648315786e-16 3.878572230637214e-16 4.1767857118794936e-23
1.8639582606462262 8.125126078707471e-24 4.0200895261208445e-16 4.0200889054153107e-16 6.207055346512704e-23
1.9207263702978936 8.162110310571244e-24 4.1613801572634487e-16 4.161379246444805e-16 9.108186439372915e-23
1.979223391128241 8.1906302549812e-24 4.3031012927465173e-16 4.30309997250477e-16 1.3202417472658608e-22
2.039501978296691 8.212867167938083e-24 4.446193533666203e-16 4.446191642581312e-16 1.8910848909138533e-22
2.1016163906111602 8.234850366066743e-24 4.593868845999402e-16 4.5938661681261715e-16 2.6778732310690254e-22
2.1656225393682647 8.260097802976028e-24 4.748291640015959e-16 4.748287889882989e-16 3.750132969171771e-22
2.231578038680979 8.288904990754176e-24 4.909968133997061e-16 4.90996293854649e-16 5.195450572567891e-22
2.299542257339062 8.323397629326403e-24 5.080558662082312e-16 5.080551539127973e-16 7.122954338323263e-22
2.369576372248914 8.368215834087702e-24 5.263480481866148e-16 5.263470814540355e-16 9.667325792509727e-22
2.4417434235010123 8.428831557024649e-24 5.463070872381824e-16 5.463057879618509e-16 1.2992763315133924e-21
2.5161083711144245 8.514583842037914e-24 5.686724671727595e-16 5.686707373742332e-16 1.7297985261026282e-21
2.5927381535095444 8.640727496422143e-24 5.946732464449292e-16 5.946709643413413e-16 2.282103587797273e-21
2.6717017477616296 8.825458993631123e-24 6.258852387379116e-16 6.258822544337978e-16 2.9843041140103277e-21
2.753070231689431 9.096142793493489e-24 6.647280309845435e-16 6.647241616481616e-16 3.8693363819761744e-21
2.836916847834745 9.51472859162601e-24 7.164938121417694e-16 7.164888365164018e-16 4.975625367575676e-21
2.9233170693905177 1.0217600110062136e-23 7.928558903445426e-16 7.928495436932757e-16 6.34665126678956e-21
2.967498994190263 1.0810243885887394e-23 8.515212796003896e-16 8.515141431360482e-16 7.136464341655573e-21
3.0123486681368425 1.1501544703830255e-23 9.196675083491854e-16 9.196594941892351e-16 8.014159950264676e-21
3.0578761833420214 1.3039342378379772e-23 1.0583882708800382e-15 1.0583792803853203e-15 8.990494717885687e-21
3.1040917844459814 1.501931636593089e-23 1.2375254890183435e-15 1.237515421018944e-15 1.0067999399344922e-20
3.127460860933648 1.7109354386088436e-23 1.4203485699529442e-15 1.4203379190065943e-15 1.065094634952435e-20
3.1510058709225794 1.9892919292668981e-23 1.6638614744058768e-15 1.663850211349693e-15 1.1263056183383606e-20
3.162844764501044 2.248213397997681e-23 1.8874907914888674e-15 1.887479209925505e-15 1.158156336224007e-20
3.1747281389236908 2.5492873385175556e-23 2.148299183419666e-15 2.1482872756507666e-15 1.1907768899392233e-20
3.1986289994194426 3.388933800084934e-23 2.877374488518403e-15 2.8773619030361776e-15 1.2585482225325428e-20
3.2227097969389145 5.367588014262159e-23 4.591660894113295e-15 4.591647585632382e-15 1.3308480912175147e-20
3.2348180950136065 7.24378393838255e-23 6.219919800169367e-15 6.219906104528527e-15 1.369564083956148e-20
3.240889293275058 8.646434505958384e-23 7.438248533246354e-15 7.438234633312467e-15 1.3899933886646344e-20
3.2469718861334385 1.0269099801395659e-22 8.85075534395874e-15 8.85074123257926e-15 1.411137947796949e-20
3.2714166318528037 1.8923961298085424e-22 1.6433018400410102e-14 1.6433003411202047e-14 1.4989208053603563e-20
3.2744851364798273 1.9465018453930112e-22 1.6918711165823826e-14 1.6918696072106497e-14 1.5093717331624167e-20
3.2775565192852394 2.0021610035879049e-22 1.7418815570396425e-14 1.741880037154177e-14 1.519885465830906e-20
3.283707930232385 1.9486457097009714e-22 1.6985050423365306e-14 1.6985035034409866e-14 1.5388955445047545e-20
3.2898708863219004 1.7789142729247225e-22 1.5534715595301883e-14 1.5534700031410653e-14 1.5563891232602147e-20
3.29141343181113 1.7388870814410933e-22 1.519229032478391e-14 1.5192274716909133e-14 1.5607874778087206e-20
3.292184975758714 1.7192190934178384e-22 1.502397621624383e-14 1.5023960586339727e-14 1.5629904101777592e-20
3.295272960557952 1.5950776039271096e-22 1.395219845706935e-14 1.3952182741114116e-14 1.5715955235081098e-20
3.3076538914384823 1.1650021440763486e-22 1.0228600507294572e-14 1.0228584444637494e-14 1.6062657074280162e-20
3.310756385682612 1.0774673116383345e-22 9.468926855372056e-15 9.468910705097012e-15 1.6150275039947795e-20
3.313861789986515 9.967013020672253e-23 8.767360212136356e-15 8.767343973864117e-15 1.623827223896987e-20
3.3200813396944477 8.834404682229222e-23 7.78566021493115e-15 7.785643788237372e-15 1.64266937799419e-20
3.345076488085796 6.814354863132482e-23 6.0506249217586995e-15 6.050607657172437e-15 1.7264586261274366e-20
3.3482140837626964 6.890190576205336e-23 6.1236997137478195e-15 6.12368233568793e-15 1.7378059890160202e-20
3.3513546224236106 6.966863815103498e-23 6.1976513214438275e-15 6.19763382927729e-15 1.7492166537602534e-20
3.3576445397418455 7.526863824100441e-23 6.7083885520499375e-15 6.708370821614343e-15 1.7730435593976255e-20
3.3702598118196083 9.592054463734619e-23 8.581129395946574e-15 8.581111165348251e-15 1.8230598321048778e-20
3.382922481734668 1.0062639750718208e-22 9.03594136757884e-15 9.035922646915758e-15 1.8720663079784914e-20
3.389271646505754 1.0306427374355459e-22 9.272224938760713e-15 9.272205968876531e-15 1.8969884182719953e-20
3.395632727569191 1.0569136851115322e-22 9.526418690341641e-15 9.526399463543683e-15 1.9226797956882734e-20
3.421196662673239 1.1830553700219024e-22 1.0743667124857765e-14 1.0743646829753148e-14 2.0295104618060632e-20
3.4276182099114902 1.1576647014421045e-22 1.0532820083344233e-14 1.0532799545538297e-14 2.053780593767805e-20
3.4340518103208963 1.0463506411922579e-22 9.537916608298982e-15 9.537895838865927e-15 2.0769433051585967e-20
3.4469541582030403 8.878179703632073e-23 8.123232283991361e-15 8.123211065688117e-15 2.1218303244482293e-20
3.472904465399547 8.434315322480527e-23 7.775209559557476e-15 7.77518731240336e-15 2.2247154114740425e-20
3.4990501388274233 7.755219275755524e-23 7.203004407614028e-15 7.202981096934524e-15 2.331067950201707e-20
3.5253949054701885 5.33722934033583e-23 4.994512109431117e-15 4.994487749090978e-15 2.4360340139708934e-20
3.5519380250092896 3.0644736417496255e-23 2.8892871281709974e-15 2.889261699036135e-15 2.542913486049426e-20
3.578680990867387 2.1636582039098942e-23 2.055327699519553e-15 2.055301095524542e-15 2.6603995010904384e-20
3.605625307711299 1.7996472182258044e-23 1.7224134408938834e-15 1.7223855901595183e-15 2.785073436515944e-20
3.660119384959845 1.5348263696460632e-23 1.4911589397913322e-15 1.4911284293011512e-15 3.051049018059927e-20
3.715437065384467 1.347626830965166e-23 1.3290734775402353e-15 1.3290401026492122e-15 3.337489102329639e-20
3.8285932144167436 1.2543908211109789e-23 1.2747984471442036e-15 1.2747586979822461e-15 3.9749161957078994e-20
3.94519561050918 1.2385011518983235e-23 1.2969833149823386e-15 1.2969362706959368e-15 4.704428640203497e-20
4.06534921144712 1.2544632352599031e-23 1.3537087253189046e-15 1.3536533685532887e-15 5.535676561599968e-20
4.189162171576248 1.2889408581234838e-23 1.433275234645501e-15 1.4332104168133358e-15 6.481783216564062e-20
4.316745939156006 1.3369636627264974e-23 1.5319532980611615e-15 1.5318777627248855e-15 7.553533627570204e-20
4.448215356677963 1.3968647308372343e-23 1.6493377158359586e-15 1.6492501779704596e-15 8.753786549896329e-20
4.58368876423945 1.4688467298988777e-23 1.7871501208278948e-15 1.7870491148452108e-15 1.0100598268462905e-19
4.723288106065518 1.5544997079880523e-23 1.948967130930749e-15 1.9488509269104014e-15 1.1620402034751556e-19
4.867139040275056 1.657004190544557e-23 2.1407541409638058e-15 2.140621076304331e-15 1.3306465947463138e-19
4.940699165968905 1.718573847200771e-23 2.253855362871524e-15 2.25371313332567e-15 1.422295458545339e-19
5.015371051989984 1.7823010145027346e-23 2.3727586006896902e-15 2.3726066949766244e-15 1.5190571306600826e-19
5.091171501069577 1.859756275742471e-23 2.513293412200071e-15 2.513131136051576e-15 1.6227614849613414e-19
5.129500256944802 1.8994936493018534e-23 2.5863204563037127e-15 2.5861527818955727e-15 1.6767440813988644e-19
5.168117569889187 1.9408931439117622e-23 2.6625847721557797e-15 2.6624115231831547e-15 1.7324897262482568e-19
5.20702561229733 1.9915466057430385e-23 2.752641296342119e-15 2.752462058648373e-15 1.792376937455206e-19
5.246226572918644 2.0434726802056493e-23 2.8456750871511805e-15 2.845489687559101e-15 1.8539959207893017e-19
5.265937586045735 2.0699254945603176e-23 2.893342551056908e-15 2.8931540041997284e-15 1.885468571796372e-19
5.285722656980489 2.0967117380217766e-23 2.9417958531078688e-15 2.9416041140261457e-15 1.9173908172343057e-19
5.305582063971359 2.1238367353122303e-23 2.991049482090459e-15 2.9908545052530067e-15 1.9497683745330974e-19
5.3255160863122235 2.1529544754017727e-23 3.0434486639773748e-15 3.0432503889195207e-15 1.9827505785325507e-19
5.365609099470188 2.2253223155974177e-23 3.169431617037959e-15 3.1692264915454443e-15 2.0512549251461403e-19
5.406003951863644 2.3004082003022602e-23 3.3010393316797734e-15 3.300827154256569e-15 2.12177423204783e-19
5.446702915881641 2.3783427959678538e-23 3.438567638141162e-15 3.4383482019047885e-15 2.1943623637272175e-19
5.487708281020852 2.4624954090527537e-23 3.587037189563969e-15 3.586810263803478e-15 2.269257604906265e-19
5.529022354014368 2.579254022623301e-23 3.785401025132224e-15 3.785166228558307e-15 2.3479657391793537e-19
5.570647458961463 2.7028240839036635e-23 3.996620281671511e-15 3.996377377614825e-15 2.4290405668694737e-19
5.612585937458331 2.833694590761886e-23 4.2216816228609154e-15 4.2214303680017116e-15 2.5125485920440726e-19
5.654840148729818 2.977465839501257e-23 4.46926959924392e-15 4.469009718869477e-15 2.5988037444406256e-19
5.67608639626678 3.0753151230214234e-23 4.633488124068027e-15 4.6332237271459495e-15 2.6439692207887355e-19
5.686739436050992 3.1257397588939194e-23 4.71830031154059e-15 4.718033630405393e-15 2.66681135197346e-19
5.6974124697621304 3.1771962348067004e-23 4.804975017999419e-15 4.804706035190168e-15 2.6898280925132836e-19
5.718818669136295 3.28330391224623e-23 4.984101103323445e-15 4.983827464272865e-15 2.736390505798306e-19
5.740305295436557 3.4002386521352195e-23 5.181002760634105e-15 5.180724370776037e-15 2.7838985806935755e-19
5.7835210386641895 3.703498533333427e-23 5.685568938526471e-15 5.685280643775727e-15 2.8829475074137027e-19
5.827062130521658 4.052646883123855e-23 6.268416513667148e-15 6.268117943623318e-15 2.9857004383273014e-19
5.8489554468988025 4.2975942442686894e-23 6.672262986378199e-15 6.671958911373544e-15 3.040750046545187e-19
5.870931020387893 4.560351849482775e-23 7.106810941490272e-15 7.106501269335231e-15 3.0967215504375545e-19
5.892989160043636 4.84235054103529e-23 7.574627851217004e-15 7.574312488215219e-15 3.153630017855903e-19
5.915130176081913 5.163013372178756e-23 8.106567246117844e-15 8.106245985535551e-15 3.2126058229373433e-19
5.95966208400165 6.059627173153977e-23 9.585990034936893e-15 9.585655696693101e-15 3.3433824379063005e-19
6.004529249263818 7.351694808284172e-23 1.1717524428116614e-14 1.1717175515356113e-14 3.4891276049977747e-19
6.027089341400364 8.249855155151656e-23 1.3198463807388061e-14 1.3198106655960966e-14 3.571514270944049e-19
6.049734195844842 9.310994248351934e-23 1.495208595877576e-14 1.4951720098840616e-14 3.658599351413526e-19
6.095279466722835 1.2376307590888228e-22 2.002415277905214e-14 2.0023766193685818e-14 3.8658536631371736e-19
6.141167624020661 1.709328844963304e-22 2.7864163265849062e-14 2.7863750609650313e-14 4.1265619875176045e-19
6.164241091010745 2.0106171205172194e-22 3.289867639982107e-14 3.2898247803496235e-14 4.2859632483394353e-19
6.187401249150058 2.3537498248921586e-22 3.865787829203273e-14 3.865743316778891e-14 4.451242438296419e-19
6.1990139391386085 2.5213185734803194e-22 4.148773916914871e-14 4.148728559869719e-14 4.535704515084766e-19
6.204828454712694 2.609580161621213e-22 4.298034074532779e-14 4.297988289196384e-14 4.578533639616089e-19
6.210648424152782 2.67403101952651e-22 4.408317022580994e-14 4.4082708610481057e-14 4.616153288906036e-19
6.233982942956859 2.8930272332383595e-22 4.7872660577253356e-14 4.787218534841166e-14 4.752288417078661e-19
6.239830258556775 2.921040493237412e-22 4.838155095268702e-14 4.8381073470262106e-14 4.774824248944222e-19
6.245683058788269 2.9235057395813605e-22 4.84678020788642e-14 4.846732233277578e-14 4.797460884083962e-19
6.257405133728602 2.917572727283272e-22 4.8460221833413744e-14 4.8459737907191416e-14 4.839262223315084e-19
6.269149208991335 2.874609545815439e-22 4.7836225321795194e-14 4.783573882308668e-14 4.86498708502185e-19
6.280915325867298 2.766743136747271e-22 4.6127637594784434e-14 4.6127150529537704e-14 4.8706524673065275e-19
6.304513850009849 2.5006767149738276e-22 4.184837381170671e-14 4.184788743808368e-14 4.863736230410573e-19
6.32820103803542 2.1708376166792454e-22 3.6465068958858745e-14 3.646458521957405e-14 4.837392846914771e-19
6.3519772230701035 1.8683292159002945e-22 3.1501538900716515e-14 3.150105716790989e-14 4.817328066376193e-19
6.375842739491607 1.61377948205989e-22 2.7311856323120626e-14 2.731137596293764e-14 4.803601829771312e-19
6.399797922933955 1.4098127131234952e-22 2.394953671305562e-14 2.3949055315901045e-14 4.813971545825627e-19
6.42384311029221 1.240191365765347e-22 2.114720922563629e-14 2.1146726294475417e-14 4.829311608704632e-19
6.447978639727206 1.1166151344126329e-22 1.9111577375679917e-14 1.911109097727884e-14 4.863984010802735e-19
6.472204850670314 1.0136511691051286e-22 1.7414468066784834e-14 1.741397777467672e-14 4.902921081159182e-19
6.496522083828205 9.46765111001131e-23 1.6326481390091428e-14 1.6325985588430063e-14 4.958016613636878e-19
6.520930681187647 8.904166668109396e-23 1.5412471877545106e-14 1.541197025248382e-14 5.01625061282006e-19
