Dust emission spectrum from A.P. Jones, M. Kohler, N. Ysard, M. Bocchio, and L. Verstraete (2017), A&A, 602A, 46J 
inside the DustPedia framework.

lambda    nu*dP/dnu     j_nu    j_nu(carb.) j_nu(sil)
 (um)   (erg s-1 H-1) (Jy cm2 sr-1 H-1)
0.9927057738263894 2.8670617284398575e-24 7.554870500294189e-17 7.554870485854492e-17 1.4439699895998158e-25
1.0001793341362166 2.9145328658314642e-24 7.737778025556322e-17 7.737778008168501e-17 1.73878213073847e-25
1.0077091589558085 2.9619667166965234e-24 7.922911648680584e-17 7.922911627770056e-17 2.091052732689066e-25
1.0114953028030835 2.9856642490524724e-24 8.016305711937696e-17 8.016305689017852e-17 2.29198465035436e-25
1.0152956718711033 3.0093459872903046e-24 8.110247163236487e-17 8.110247138122474e-17 2.5114011599891055e-25
1.0229392996569957 3.0566303219603777e-24 8.299696544525021e-17 8.299696514401686e-17 3.0123334662829242e-25
1.0267826658714554 3.080176004138227e-24 8.395054010442068e-17 8.395053977466054e-17 3.297601502218932e-25
1.0306404723013447 3.1036962058726213e-24 8.49094115657102e-17 8.490941120484021e-17 3.608699866520375e-25
1.03451277320114 3.1271888409556926e-24 8.587354626319501e-17 8.587354586840987e-17 3.9478513337422806e-25
1.0383996230291617 3.150651836706738e-24 8.684291023648691e-17 8.6842909804741e-17 4.317459195732315e-25
1.0403485208654093 3.1623715759294937e-24 8.732954248394764e-17 8.732954203249884e-17 4.514488020113205e-25
1.0423010764483396 3.174083134421072e-24 8.78174691424008e-17 8.781746867038869e-17 4.720120979841411e-25
1.0462171883269815 3.197480689810494e-24 8.879718826668875e-17 8.879718775082447e-17 5.158643131868375e-25
1.0471985131304309 3.2033245682622702e-24 8.904292022942918e-17 8.904291970200648e-17 5.274226885402398e-25
1.048180758391296 3.2091661793418074e-24 8.928897196396011e-17 8.928897142473112e-17 5.392289830215743e-25
1.0501480137395462 3.2208424734353294e-24 8.978203253583706e-17 8.978203197223135e-17 5.636056725554847e-25
1.0521189612883777 3.232509320800678e-24 9.027636554394045e-17 9.02763649549044e-17 5.890360556490177e-25
1.0531058218030118 3.2383303116068864e-24 9.052376148702035e-17 9.052376088485964e-17 6.021607086869918e-25
1.0540936079674168 3.2441199758523988e-24 9.077066558840727e-17 9.07706649728392e-17 6.155680721346696e-25
1.058054026499678 3.2672522647025106e-24 9.176138183553633e-17 9.176138116342397e-17 6.721123536645778e-25
1.0590464539527713 3.2730285910277796e-24 9.20098330065959e-17 9.2009832319589e-17 6.870069171713386e-25
1.06003981227728 3.27880215768577e-24 9.225859187676604e-17 9.225859117454883e-17 7.022171930791194e-25
1.0620293250338977 3.2903408899049955e-24 9.275703041591957e-17 9.275702968230908e-17 7.336104579122904e-25
1.0660195594769086 3.3133838990498176e-24 9.375757453617806e-17 9.37575737357043e-17 8.004737760138581e-25
1.070024785945596 3.336379357002351e-24 9.476297711498117e-17 9.476297624183533e-17 8.731458482549812e-25
1.0740450607676866 3.3593253462784076e-24 9.577320079521968e-17 9.577319984311498e-17 9.521047067968777e-25
1.07808044048254 3.382219967410653e-24 9.678820795621836e-17 9.678820691835298e-17 1.0378653756638292e-24
1.0861967418109137 3.42780779449317e-24 9.883127332439527e-17 9.883127209234173e-17 1.2320535319623998e-24
1.0902777775684922 3.450406777492026e-24 9.985662684011796e-17 9.985662549839664e-17 1.341721321014661e-24
1.0943741465085532 3.472945398891557e-24 1.0088653662770456e-16 1.0088653516702751e-16 1.4606770726067054e-24
1.1026131145906286 3.5178344043233965e-24 1.0295986838762042e-16 1.0295986665813732e-16 1.729483107698789e-24
1.1109141095355224 3.562460710952424e-24 1.0505095361445074e-16 1.0505095156933546e-16 2.0451152397406536e-24
1.1192775983109025 3.606769933709597e-24 1.0715826799194137e-16 1.0715826557669953e-16 2.4152418539894545e-24
1.1277040513999907 3.6505620436394374e-24 1.0927587877573272e-16 1.0927587592703062e-16 2.8487020914375855e-24
1.1361939428280308 3.694045370868403e-24 1.1140998812506017e-16 1.114099847693902e-16 3.355669957436053e-24
1.1447477501889525 3.7372073086348685e-24 1.1356027125180116e-16 1.1356026730396027e-16 3.9478409275027315e-24
1.1533659546722406 3.7800580683214205e-24 1.1572708982783933e-16 1.1572708518919142e-16 4.6386479048067965e-24
1.1707974979042381 3.8649632962576186e-24 1.201148194093844e-16 1.2011481302932617e-16 6.380058209166935e-24
1.1884924949847024 3.948467131593122e-24 1.2456453290075908e-16 1.2456452416916624e-16 8.731592823484439e-24
1.2064549276569216 4.031210498969049e-24 1.2909695867617127e-16 1.290969467848968e-16 1.1891274458561802e-23
1.2246888378427687 4.112341251382281e-24 1.33685510509876e-16 1.336854943943468e-16 1.6115529214187115e-23
1.2431983285522175 4.191687522439257e-24 1.383243857874069e-16 1.3832436405214793e-16 2.1735258985534837e-23
1.2619875648066055 4.269241384030826e-24 1.4301290194295379e-16 1.4301287276766312e-16 2.9175290684032256e-23
1.3004222497298317 4.417808016725467e-24 1.5249677646573566e-16 1.5249672463405735e-16 5.183167829555165e-23
1.3400274889804893 4.5576294626329725e-24 1.6211460947740573e-16 1.6211451907346207e-16 9.040394360145467e-23
1.3808389325824078 4.688374229822587e-24 1.7184413984546638e-16 1.7184398496627728e-16 1.5487918906471924e-22
1.4228933163050095 4.810780107041853e-24 1.8170098385824697e-16 1.8170072310732675e-16 2.607509201735502e-22
1.466228494730424 4.927648323075694e-24 1.9178330293926155e-16 1.917828713188657e-16 4.31620395890837e-22
1.5108834753276823 5.0371926412148295e-24 2.0201748709096082e-16 2.020167843226532e-16 7.027683076249735e-22
1.5568984535646726 5.1380007160138354e-24 2.1233612171184808e-16 2.123349950069217e-16 1.1267049263522626e-21
1.6043148490894465 5.230417055014623e-24 2.227385333339301e-16 2.2273675137676363e-16 1.781957166397425e-21
1.6531753430134553 5.314864340278487e-24 2.332279183501777e-16 2.3322514139170893e-16 2.776958468810028e-21
1.7035239163302658 5.392249505035933e-24 2.438302856555475e-16 2.4382602054905516e-16 4.265106492311366e-21
1.755405889504358 5.4669118659378865e-24 2.5473525606912597e-16 2.5472879661356747e-16 6.459455558525287e-21
1.8088679632656115 5.538029840736928e-24 2.6590811518368923e-16 2.6589846531827586e-16 9.649865413359647e-21
1.8639582606462262 5.605064438394921e-24 2.7732321472614393e-16 2.7730898887488077e-16 1.4225851263155314e-20
1.9207263702978936 5.6686664950383345e-24 2.8901197573922166e-16 2.8899127286927985e-16 2.0702869941809314e-20
1.979223391128241 5.730136395769783e-24 3.0104346753114933e-16 3.010137135172797e-16 2.97540138695951e-20
2.039501978296691 5.7909559366966034e-24 3.135045327410373e-16 3.134622874688771e-16 4.224527216008986e-20
2.1016163906111602 5.855155660455562e-24 3.266339518187411e-16 3.2657467192083967e-16 5.927989790139354e-20
2.1656225393682647 5.9250615330633786e-24 3.4060032720058853e-16 3.40518087219028e-16 8.223998156049146e-20
2.231578038680979 6.000767353740444e-24 3.5545800704991154e-16 3.5534517306347277e-16 1.1283398643887497e-19
2.299542257339062 6.0835845535650545e-24 3.7133883993748854e-16 3.7118569202009953e-16 1.5314791738907514e-19
2.369576372248914 6.176391912481912e-24 3.8848565720877604e-16 3.8827995592405246e-16 2.0570128472357544e-19
2.4417434235010123 6.282571057861988e-24 4.071991558696008e-16 4.0692566143646224e-16 2.73494433138493e-19
2.5161083711144245 6.4079829269208856e-24 4.279766960144044e-16 4.276166269139856e-16 3.600691004188828e-19
2.5927381535095444 6.5622311615930986e-24 4.516267074042668e-16 4.511571533528488e-16 4.695540514179254e-19
2.6717017477616296 6.756489926439412e-24 4.791577768013565e-16 4.785510972493391e-16 6.066795520174951e-19
2.753070231689431 7.00756001068693e-24 5.120985536025142e-16 5.113217462738132e-16 7.768073287009323e-19
2.836916847834745 7.354037708578827e-24 5.537858974864889e-16 5.527999185162806e-16 9.859789702083762e-19
2.9233170693905177 7.881006312872352e-24 6.115430443250503e-16 6.103023509441792e-16 1.240693380871177e-18
2.967498994190263 8.296213637176532e-24 6.534914962824502e-16 6.521065774833243e-16 1.3849187991257965e-18
3.0123486681368425 8.773300277024131e-24 7.01516136617981e-16 6.999722849282239e-16 1.5438516897569887e-18
3.0578761833420214 9.782320788563519e-24 7.940196126584174e-16 7.92300390666353e-16 1.7192219920644226e-18
3.1040917844459814 1.1065524034109761e-23 9.117504224505477e-16 9.09839591495785e-16 1.9108309547626826e-18
3.127460860933648 1.2396877968885254e-23 1.0291380666768027e-15 1.0271243390201433e-15 2.0137276566593837e-18
3.1510058709225794 1.4160339729658746e-23 1.184383417740043e-15 1.182262211358331e-15 2.121206381712225e-18
3.162844764501044 1.579430305763622e-23 1.3260129846136418e-15 1.3238360716496057e-15 2.176912964035865e-18
3.1747281389236908 1.7688975778245943e-23 1.490660218868628e-15 1.4884264062312366e-15 2.2338126373914828e-18
3.1986289994194426 2.2956513443914275e-23 1.949122940294473e-15 1.9467713884626348e-15 2.3515518318383446e-18
3.2227097969389145 3.534331390462035e-23 3.023415953180675e-15 3.020939406539041e-15 2.476546641633731e-18
3.2348180950136065 4.7075373330877804e-23 4.042155994322378e-15 4.039612682960594e-15 2.5433113617843306e-18
3.240889293275058 5.584526986666799e-23 4.804188320494858e-15 4.801609791130321e-15 2.5785293645358363e-18
3.2469718861334385 6.599260779081054e-23 5.687786050992587e-15 5.6851710798512325e-15 2.61497114135409e-18
3.2714166318528037 1.200389134482514e-22 1.042383062609583e-14 1.0421064866414905e-14 2.7657596809262533e-18
3.2744851364798273 1.2341924725747928e-22 1.0727421613263805e-14 1.0724638029374858e-14 2.7835838889460103e-18
3.2775565192852394 1.268960646954202e-22 1.1039967033508202e-14 1.1037165531224928e-14 2.801502283276815e-18
3.283707930232385 1.2356105947471096e-22 1.0769996901409333e-14 1.0767163246004294e-14 2.8336554050381333e-18
3.2898708863219004 1.1296973347715097e-22 9.865302151740383e-15 9.862439134348562e-15 2.8630173918190475e-18
3.29141343181113 1.1047150302523473e-22 9.651662632306844e-15 9.648792239278044e-15 2.870393028798188e-18
3.292184975758714 1.0924388155106794e-22 9.546645244210928e-15 9.543771158083398e-15 2.8740861275283662e-18
3.295272960557952 1.0150237439685238e-22 8.878447468398878e-15 8.87555899781767e-15 2.8884705812089425e-18
3.3076538914384823 7.466341980601448e-23 6.555372430748914e-15 6.552426132982195e-15 2.9462977667195392e-18
3.310756385682612 6.919551070937701e-23 6.080994036198966e-15 6.0780331517676165e-15 2.9608844313527193e-18
3.313861789986515 6.414836739974452e-23 5.642732108883023e-15 5.63975658568059e-15 2.9755232024322293e-18
3.3200813396944477 5.707393334366632e-23 5.029860733426224e-15 5.026853769991693e-15 3.0069634345314173e-18
3.345076488085796 4.4485499594947616e-23 3.949971463363803e-15 3.94682450593307e-15 3.1469574307338955e-18
3.3482140837626964 4.4963448110977985e-23 3.996154406485973e-15 3.992988489014932e-15 3.165917471041252e-18
3.3513546224236106 4.5446588066094436e-23 4.042882336415515e-15 4.0396973677274955e-15 3.1849686880180553e-18
3.3576445397418455 4.8954796596829883e-23 4.363142534963503e-15 4.359917752273735e-15 3.224782689766817e-18
3.3702598118196083 6.18672872940781e-23 5.534697490030574e-15 5.5313891834959904e-15 3.3083065345828346e-18
3.382922481734668 6.482855133827977e-23 5.821404754114949e-15 5.8180150617494504e-15 3.3896923654987707e-18
3.389271646505754 6.636197417741647e-23 5.970285624718882e-15 5.966854640558011e-15 3.430984160867844e-18
3.395632727569191 6.801762358766961e-23 6.130721644973505e-15 6.127248105464381e-15 3.473539509124057e-18
3.421196662673239 7.597442520121907e-23 6.899456737592859e-15 6.89580681029846e-15 3.649927294398466e-18
3.4276182099114902 7.439671731566488e-23 6.7688618068874165e-15 6.7651722949298346e-15 3.689511957583961e-18
3.4340518103208963 6.744252927523081e-23 6.147664031122053e-15 6.1439369717823854e-15 3.727059339667653e-18
3.4469541582030403 5.753274941675522e-23 5.264050774482263e-15 5.260251428918902e-15 3.799345563360556e-18
3.472904465399547 5.477269187458224e-23 5.049243965670235e-15 5.0452784125489824e-15 3.965553121253233e-18
3.4990501388274233 5.054610722089692e-23 4.694694245951957e-15 4.690558102208998e-15 4.1361437429595e-18
3.5253949054701885 3.54629487434411e-23 3.3185781543370377e-15 3.314275477459989e-15 4.302676877048508e-18
3.5519380250092896 2.1265180720575206e-23 2.0049515876765333e-15 2.000480873232746e-15 4.470714443787093e-18
3.578680990867387 1.56517998378806e-23 1.4868142156648765e-15 1.4821592130823045e-15 4.6550025825719035e-18
3.605625307711299 1.3399989630610016e-23 1.2824914802110639e-15 1.277641977110346e-15 4.849503100718002e-18
3.660119384959845 1.1795760291047526e-23 1.1460158463193002e-15 1.1407558956430784e-15 5.259950676221738e-18
3.715437065384467 1.067261249156679e-23 1.0525678082891095e-15 1.0468725004763307e-15 5.6953078127787385e-18
3.8285932144167436 1.0188931628671156e-23 1.0354694884314125e-15 1.0288291031358378e-15 6.64038529557471e-18
3.94519561050918 1.0188042259052533e-23 1.0669122755415015e-15 1.0592269971625653e-15 7.685278378936027e-18
4.06534921144712 1.0385004413999148e-23 1.1206602706689411e-15 1.111827792942736e-15 8.832477726205268e-18
4.189162171576248 1.0696199063466081e-23 1.1893949304100368e-15 1.1793070445493279e-15 1.0087885860708464e-17
4.316745939156006 1.1090048946441174e-23 1.270747854471479e-15 1.2592965673810662e-15 1.145128709041316e-17
4.448215356677963 1.1555603584715146e-23 1.3644193600690674e-15 1.3515103189504952e-15 1.2909041118572316e-17
4.58368876423945 1.2093720509261116e-23 1.4714465185127082e-15 1.4569792971697706e-15 1.446722134293735e-17
4.723288106065518 1.271399980926303e-23 1.594028458389643e-15 1.5778886778318796e-15 1.6139780557762847e-17
4.867139040275056 1.343551417163187e-23 1.7357911804342785e-15 1.717899752293826e-15 1.789142814045201e-17
4.940699165968905 1.3859368988923232e-23 1.8176125030983714e-15 1.7988092560036483e-15 1.8803247094722928e-17
5.015371051989984 1.4295021140257298e-23 1.9030811339716267e-15 1.8833438723408186e-15 1.9737261630808533e-17
5.091171501069577 1.4815929199784943e-23 2.002239634254016e-15 1.9815273191821486e-15 2.0712315071867556e-17
5.129500256944802 1.5081866637292027e-23 2.053523064823589e-15 2.032315207731026e-15 2.1207857092563337e-17
5.168117569889187 1.5357763728682213e-23 2.1068314845989606e-15 2.0851186485633574e-15 2.1712836035603242e-17
5.20702561229733 1.569205069178538e-23 2.1688966069858367e-15 2.1466364485657313e-15 2.226015842010542e-17
5.246226572918644 1.603357696182552e-23 2.2327849527988945e-15 2.2099704352469338e-15 2.2814517551960938e-17
5.265937586045735 1.6207126553092598e-23 2.2654326935756593e-15 2.242338387047225e-15 2.3094306528434318e-17
5.285722656980489 1.638257335696607e-23 2.2985604311171978e-15 2.2751846121902017e-15 2.337581892699605e-17
5.305582063971359 1.6559947911099407e-23 2.3321766122317827e-15 2.308517569942483e-15 2.3659042289300594e-17
5.3255160863122235 1.6749780789693694e-23 2.3677740773777438e-15 2.343828208350324e-15 2.3945869027420432e-17
5.365609099470188 1.7218527561363637e-23 2.45236140712383e-15 2.4278219797643078e-15 2.4539427359522e-17
5.406003951863644 1.770320540989766e-23 2.5403742408499404e-15 2.5152336528610504e-15 2.5140587988890626e-17
5.446702915881641 1.8204586825457975e-23 2.631988257953242e-15 2.6062389973473184e-15 2.5749260605923032e-17
5.487708281020852 1.8744035829243316e-23 2.730382901622494e-15 2.704015315958853e-15 2.636758566364044e-17
5.529022354014368 1.9488772766318595e-23 2.8602386488927023e-15 2.8332257004794938e-15 2.7012948413209348e-17
5.570647458961463 2.027422072026227e-23 2.9979147443682863e-15 2.9702481156136707e-15 2.7666628754616412e-17
5.612585937458331 2.1103312628541517e-23 3.1440038526328528e-15 3.1156753089646317e-15 2.832854366822115e-17
5.654840148729818 2.201135126157532e-23 3.303972852569023e-15 3.2749714319990877e-15 2.900142056993542e-17
5.67608639626678 2.2628502568739132e-23 3.4093708684618994e-15 3.380017703121192e-15 2.935316534070693e-17
5.686739436050992 2.2946130433303723e-23 3.4637155593023356e-15 3.4341856471889816e-15 2.9529912113354026e-17
5.6974124697621304 2.326998524705613e-23 3.519193953348063e-15 3.4894867129845283e-15 2.9707240363535237e-17
5.718818669136295 2.3936974329456392e-23 3.63366606791048e-15 3.603602431043645e-15 3.006363686683412e-17
5.740305295436557 2.4671216612242277e-23 3.759196175714378e-15 3.7287714619264454e-15 3.042471378793292e-17
5.7835210386641895 2.6573538928622584e-23 4.079539553194101e-15 4.0483671958659914e-15 3.117235732811083e-17
5.827062130521658 2.875734758770755e-23 4.44803205674564e-15 4.416096072382117e-15 3.193598436352371e-17
5.8489554468988025 3.0290076696076826e-23 4.7027091462465805e-15 4.670362261912038e-15 3.234688433454271e-17
5.870931020387893 3.193128462502492e-23 4.976142421438491e-15 4.9433814228347086e-15 3.2760998603783405e-17
5.892989160043636 3.368965486134874e-23 5.2698910549359326e-15 5.23671272870037e-15 3.3178326235561365e-17
5.915130176081913 3.5687491435445545e-23 5.603375941763448e-15 5.569765371830085e-15 3.3610569933360625e-17
5.95966208400165 4.127416870286172e-23 6.529341799092941e-15 6.4947551489201235e-15 3.4586650172816064e-17
6.004529249263818 4.931540228909833e-23 7.860152605270815e-15 7.824472032155994e-15 3.5680573114821084e-17
6.027089341400364 5.490362277227914e-23 8.783711524946069e-15 8.747403340729415e-15 3.630818421665371e-17
6.049734195844842 6.149840076996946e-23 9.87573775810874e-15 9.838765550398274e-15 3.697220771046508e-17
6.095279466722835 8.054330736514911e-23 1.3031443184211876e-14 1.2992854346293834e-14 3.8588837918043804e-17
6.141167624020661 1.0981988143462844e-22 1.7901991855735442e-14 1.7861323992743238e-14 4.066786299220067e-17
6.164241091010745 1.2851822388705314e-22 2.1028764830433094e-14 2.0986801454932988e-14 4.196337550011125e-17
6.187401249150058 1.4978513564238863e-22 2.4600641420692915e-14 2.4557345052961168e-14 4.329636773174735e-17
6.1990139391386085 1.6016751416263544e-22 2.635521001131521e-14 2.6311234806299527e-14 4.397520501568713e-17
6.204828454712694 1.6563365571169598e-22 2.7280215668716223e-14 2.7235897305214575e-14 4.4318363501646696e-17
6.210648424152782 1.696234194691123e-22 2.7963542756751137e-14 2.7918929797359408e-14 4.461295939173475e-17
6.233982942956859 1.8316653142456206e-22 3.0309666937305364e-14 3.026401734835201e-14 4.56495889533534e-17
6.239830258556775 1.8489153662501413e-22 3.062381134617387e-14 3.057801078344373e-14 4.580056273015036e-17
6.245683058788269 1.8503204581768253e-22 3.067583023190158e-14 3.062987834742902e-14 4.595188447256121e-17
6.257405133728602 1.8463916745159784e-22 3.066814729301696e-14 3.062192634041543e-14 4.6220952601534494e-17
6.269149208991335 1.81950263909988e-22 3.027824712552146e-14 3.023190707533658e-14 4.634005018488178e-17
6.280915325867298 1.7523788270945655e-22 2.921597397003871e-14 2.916970061245637e-14 4.627335758233619e-17
6.304513850009849 1.586968925915148e-22 2.655763875497793e-14 2.651166727597029e-14 4.5971479007642603e-17
6.32820103803542 1.3821842038549878e-22 2.3217509186392788e-14 2.3172018869388628e-14 4.549031700416112e-17
6.3519772230701035 1.1944470372279998e-22 2.013934133655994e-14 2.009427536942917e-14 4.506596713077461e-17
6.375842739491607 1.0364171490295409e-22 1.7540485908881205e-14 1.7495786359152996e-14 4.469954972821264e-17
6.399797922933955 9.099217378526467e-23 1.5457517061559086e-14 1.5412969750840835e-14 4.454731071825311e-17
6.42384311029221 8.0467421199257e-23 1.3720958224039558e-14 1.3676520569886469e-14 4.44376541530877e-17
6.447978639727206 7.280399980215934e-23 1.246086706687765e-14 1.2416371138085183e-14 4.449592879246248e-17
6.472204850670314 6.641594428998973e-23 1.1410220559252696e-14 1.1365632585279682e-14 4.458797397301557e-17
6.496522083828205 6.226708117604849e-23 1.073764052163994e-14 1.069282359451449e-14 4.4816927125449624e-17
