Dust emission spectrum from A.P. Jones, M. Kohler, N. Ysard, M. Bocchio, and L. Verstraete (2017), A&A, 602A, 46J 
inside the DustPedia framework.

lambda    nu*dP/dnu     j_nu    j_nu(carb.) j_nu(sil)
 (um)   (erg s-1 H-1) (Jy cm2 sr-1 H-1)
0.9927057738263894 4.915381275569658e-23 1.2952308849208867e-15 1.2952308849208851e-15 1.4969841575169923e-30
1.0001793341362166 4.9966140812582604e-23 1.3265484528724188e-15 1.3265484528724166e-15 1.8040028781697486e-30
1.0077091589558085 5.0777317834001745e-23 1.358233368011839e-15 1.3582333680118368e-15 2.171251312682993e-30
1.0114953028030835 5.1182374815320746e-23 1.3742119989305635e-15 1.3742119989305615e-15 2.380896655761867e-30
1.0152956718711033 5.158702448373041e-23 1.3902805484845878e-15 1.3902805484845853e-15 2.609956746194995e-30
1.0229392996569957 5.2394546904192557e-23 1.4226739712958918e-15 1.422673971295889e-15 3.1333604742576397e-30
1.0267826658714554 5.27964406028144e-23 1.4389728698108285e-15 1.4389728698108251e-15 3.4316787630379426e-30
1.0306404723013447 5.319774931261816e-23 1.4553581572216396e-15 1.4553581572216358e-15 3.757202295952862e-30
1.03451277320114 5.359843430898405e-23 1.4718291290847482e-15 1.4718291290847443e-15 4.112293340390314e-30
1.0383996230291617 5.399845708167821e-23 1.488385072136251e-15 1.4883850721362466e-15 4.499508155708711e-30
1.0403485208654093 5.419820816014234e-23 1.4966946825923894e-15 1.496694682592385e-15 4.706017509616886e-30
1.0423010764483396 5.439777934223843e-23 1.5050252644606465e-15 1.5050252644606416e-15 4.9216119390265445e-30
1.0462171883269815 5.479636303119725e-23 1.5217489756597801e-15 1.5217489756597752e-15 5.381594840263595e-30
1.0471985131304309 5.489588911390702e-23 1.525942866896216e-15 1.5259428668962104e-15 5.502882381051614e-30
1.048180758391296 5.499536608209898e-23 1.5301419203100865e-15 1.530141920310081e-15 5.6267910895129345e-30
1.0501480137395462 5.519417032514123e-23 1.5385554670219301e-15 1.5385554670219234e-15 5.882689116482304e-30
1.0521189612883777 5.539277107041232e-23 1.5469895221851094e-15 1.5469895221851033e-15 6.149733795778722e-30
1.0531058218030118 5.54918412447678e-23 1.5512099501747057e-15 1.5512099501746996e-15 6.287588680193809e-30
1.0540936079674168 5.559035939906336e-23 1.5554214888818702e-15 1.5554214888818635e-15 6.42843472434468e-30
1.058054026499678 5.598387348321378e-23 1.5723174016357397e-15 1.5723174016357326e-15 7.022682461356653e-30
1.0590464539527713 5.608210949306784e-23 1.5765537591880458e-15 1.5765537591880391e-15 7.179278734459104e-30
1.06003981227728 5.618028735094132e-23 1.5807950443366365e-15 1.5807950443366292e-15 7.339220456886078e-30
1.0620293250338977 5.637646632419578e-23 1.5892923488929077e-15 1.5892923488928996e-15 7.669413909980019e-30
1.0660195594769086 5.67681013549046e-23 1.606345553736197e-15 1.6063455537361886e-15 8.37303125255598e-30
1.070024785945596 5.715874228418521e-23 1.623476231990586e-15 1.6234762319905765e-15 9.138284910826758e-30
1.0740450607676866 5.754835310280148e-23 1.6406835923929682e-15 1.640683592392958e-15 9.970299306112018e-30
1.07808044048254 5.793689808924203e-23 1.6579668367616078e-15 1.6579668367615966e-15 1.0874600381660067e-29
1.0861967418109137 5.87099627591558e-23 1.6927379608730725e-15 1.6927379608730593e-15 1.2924354148887993e-29
1.0902777775684922 5.909285161252655e-23 1.710178889887183e-15 1.7101788898871687e-15 1.4083145713875722e-29
1.0943741465085532 5.9474507432845e-23 1.727691162220244e-15 1.7276911622202292e-15 1.5340962444795013e-29
1.1026131145906286 6.023398428489576e-23 1.7629263864191658e-15 1.7629263864191478e-15 1.8186346512185074e-29
1.1109141095355224 6.098812521112217e-23 1.7984368761987083e-15 1.798436876198687e-15 2.153222175230785e-29
1.1192775983109025 6.173596752651371e-23 1.834194992898763e-15 1.834194992898738e-15 2.546152341266611e-29
1.1277040513999907 6.247403882887363e-23 1.870097100688723e-15 1.870097100688693e-15 3.007003528328126e-29
1.1361939428280308 6.320590258526522e-23 1.9062486108021765e-15 1.906248610802141e-15 3.5468214044001825e-29
1.1447477501889525 6.393131466224007e-23 1.9426424158364914e-15 1.9426424158364496e-15 4.178328742529961e-29
1.1533659546722406 6.465043173526175e-23 1.979283435758863e-15 1.9792834357588135e-15 4.9161674471437575e-29
1.1707974979042381 6.607210145121542e-23 2.0533800518871157e-15 2.0533800518870474e-15 6.780657185073147e-29
1.1884924949847024 6.746552800239669e-23 2.1283732908094053e-15 2.1283732908093126e-15 9.306512680275435e-29
1.2064549276569216 6.884160057433172e-23 2.2046085826624127e-15 2.2046085826622853e-15 1.2711628915671756e-28
1.2246888378427687 7.018529612506661e-23 2.2816095672051842e-15 2.2816095672050115e-15 1.7279371398958074e-28
1.2431983285522175 7.149347034493795e-23 2.3592623067281706e-15 2.3592623067279375e-15 2.3377014680648512e-28
1.2619875648066055 7.276563214098995e-23 2.4375347463654448e-15 2.4375347463651292e-15 3.1478155535363396e-28
1.3004222497298317 7.518077375316032e-23 2.5951389481280824e-15 2.59513894812752e-15 5.628768687485974e-28
1.3400274889804893 7.742125485495738e-23 2.7538694400161385e-15 2.75386944001515e-15 9.884117716075245e-28
1.3808389325824078 7.947875109884115e-23 2.913154315134332e-15 2.9131543151326265e-15 1.7052256965819106e-27
1.4228933163050095 8.136324450813389e-23 3.073052862130832e-15 3.0730528621279404e-15 2.8917322754538084e-27
1.466228494730424 8.312002543082202e-23 3.235018404797308e-15 3.2350184047924856e-15 4.822627777735351e-27
1.5108834753276823 8.471495229119014e-23 3.397507897726435e-15 3.3975078977185226e-15 7.913196811052796e-27
1.5568984535646726 8.612039249822886e-23 3.5590633699956085e-15 3.55906336998282e-15 1.2788306686470895e-26
1.6043148490894465 8.733888625386263e-23 3.719346893868279e-15 3.719346893847888e-15 2.0391809422520444e-26
1.6531753430134553 8.837410971122271e-23 3.878049997964521e-15 3.878049997932474e-15 3.2047992259626645e-26
1.7035239163302658 8.923832144461609e-23 4.035237128575213e-15 4.035237128525558e-15 4.9654970559427317e-26
1.755405889504358 9.00024635158802e-23 4.193738833328834e-15 4.193738833252947e-15 7.588741347122549e-26
1.8088679632656115 9.064899614067095e-23 4.3525052049650656e-15 4.352505204850623e-15 1.1444314676790991e-25
1.8639582606462262 9.116603163296352e-23 4.51064519313871e-15 4.510645192968334e-15 1.7037742910051941e-25
1.9207263702978936 9.15621588616933e-23 4.668216141967178e-15 4.668216141716671e-15 2.505081379878344e-25
1.979223391128241 9.185739453937467e-23 4.82590058256289e-15 4.825900582198964e-15 3.639255026338989e-25
2.039501978296691 9.207569944008653e-23 4.984695004644594e-15 4.98469500412199e-15 5.226021371289681e-25
2.1016163906111602 9.228421917815367e-23 5.148139682134749e-15 5.148139681392559e-15 7.421917682208704e-25
2.1656225393682647 9.252188432373164e-23 5.31859186575994e-15 5.318591864717036e-15 1.0429032558248505e-24
2.231578038680979 9.279147187776849e-23 5.496542312099469e-15 5.496542310648874e-15 1.4505940194127255e-24
2.299542257339062 9.311628864527033e-23 5.6837698729043016e-15 5.683769870906185e-15 1.998116914544175e-24
2.369576372248914 9.354788440544946e-23 5.884019645887081e-15 5.884019643160064e-15 2.7270167441931564e-24
2.4417434235010123 9.414713183070268e-23 6.102061123691042e-15 6.102061120001534e-15 3.689507298454164e-24
2.5161083711144245 9.501828828868044e-23 6.34608636547569e-15 6.346086360524516e-15 4.95117266941073e-24
2.5927381535095444 9.633196941453507e-23 6.629771047853963e-15 6.6297710412597275e-15 6.594235780878092e-24
2.6717017477616296 9.829186889452542e-23 6.970677658061857e-15 6.970677649340512e-15 8.72134530890078e-24
2.753070231689431 1.0120467202643533e-22 7.39583622309557e-15 7.395836211634681e-15 1.1460887381458021e-23
2.836916847834745 1.0576521880929106e-22 7.9645072465201e-15 7.96450723154556e-15 1.4974542187200665e-23
2.9233170693905177 1.1350385930017922e-22 8.80756757493008e-15 8.807567555466197e-15 1.9463881454193356e-23
2.967498994190263 1.2007587238356176e-22 9.458358347924569e-15 9.458358325800533e-15 2.2124038677515913e-23
3.0123486681368425 1.277511875643307e-22 1.0215029318349845e-14 1.0215029293213897e-14 2.5135950490244335e-23
3.0578761833420214 1.449254515952036e-22 1.176343052197818e-14 1.1763430493421781e-14 2.855639890602923e-23
3.1040917844459814 1.670561807126591e-22 1.3764693191956527e-14 1.3764693159538266e-14 3.2418260513234644e-23
3.127460860933648 1.9046801810516005e-22 1.5811875248630272e-14 1.5811875214080452e-14 3.4549823772597274e-23
3.1510058709225794 2.2166096583163657e-22 1.8539920461185107e-14 1.8539920424364453e-14 3.682065317240408e-23
3.162844764501044 2.506972417028312e-22 2.1047322980424696e-14 2.104732294239946e-14 3.802522999633053e-23
3.1747281389236908 2.8446385010156765e-22 2.397193316156282e-14 2.3971933122294367e-14 3.926846111377228e-23
3.1986289994194426 3.786482349079619e-22 3.2149131128480216e-14 3.214913108658606e-14 4.1894162263016464e-23
3.2227097969389145 6.006649888109562e-22 5.1383413411347564e-14 5.1383413366510824e-14 4.483674802624567e-23
3.2348180950136065 8.112065300626968e-22 6.965474952432508e-14 6.965474947781833e-14 4.650675690651357e-23
3.240889293275058 9.686139192874209e-22 8.332672917902441e-14 8.332672913158832e-14 4.743604616810132e-23
3.2469718861334385 1.1507101801826942e-21 9.917767354072775e-14 9.91776734922961e-14 4.843165038190782e-23
3.2714166318528037 2.1220431400772218e-21 1.8427206343357428e-13 1.8427206338083402e-13 5.274031774843449e-23
3.2744851364798273 2.1827646874351656e-21 1.8972273454083978e-13 1.897227344876101e-13 5.322971037695574e-23
3.2775565192852394 2.2452303318139617e-21 1.9533520527491525e-13 1.9533520522119084e-13 5.372432162986703e-23
3.283707930232385 2.1851595527004027e-21 1.9046584507868387e-13 1.9046584502419065e-13 5.449323720239752e-23
3.2898708863219004 1.9946539047107487e-21 1.7418703977114642e-13 1.7418703971605702e-13 5.508936718527955e-23
3.29141343181113 1.9497278862480222e-21 1.7034362045900702e-13 1.7034362040376783e-13 5.523922428230647e-23
3.292184975758714 1.927652827328822e-21 1.684544473816213e-13 1.68454447326307e-13 5.531427691586151e-23
3.295272960557952 1.7883127996574556e-21 1.5642433335349062e-13 1.5642433329791028e-13 5.558031305453345e-23
3.3076538914384823 1.3055950269534594e-21 1.1462991740332999e-13 1.146299173466932e-13 5.663678582333827e-23
3.310756385682612 1.2073493720928362e-21 1.061034777550991e-13 1.0610347769819533e-13 5.690374372413045e-23
3.313861789986515 1.116702364284339e-21 9.822934772051459e-14 9.822934766334273e-14 5.717184616562337e-23
3.3200813396944477 9.89580058016809e-22 8.721056329566525e-14 8.721056323784281e-14 5.782244055361883e-23
3.345076488085796 7.628057695190167e-22 6.773130681062616e-14 6.773130674947506e-14 6.115109456250658e-23
3.3482140837626964 7.713095161207207e-22 6.855061280004088e-14 6.855061273839106e-14 6.164983962286363e-23
3.3513546224236106 7.799072813109947e-22 6.937975997380598e-14 6.937975991165323e-14 6.215274696462248e-23
3.3576445397418455 8.427419090313005e-22 7.51101694808986e-14 7.511016941763028e-14 6.326832584475108e-23
3.3702598118196083 1.0745027325828604e-21 9.612588230657072e-14 9.612588224082585e-14 6.574490016889677e-23
3.382922481734668 1.1272891435208001e-21 1.0122710200805005e-13 1.0122710194004054e-13 6.800949424571784e-23
3.389271646505754 1.1546361867622482e-21 1.0387737726393305e-13 1.038773771947606e-13 6.917243518486703e-23
3.395632727569191 1.1841040821531222e-21 1.06728405719744e-13 1.0672840564935118e-13 7.039284281108888e-23
3.421196662673239 1.3255983764456045e-21 1.2038141289633644e-13 1.203814128207557e-13 7.55807385758651e-23
3.4276182099114902 1.2970847489535594e-21 1.180131023823983e-13 1.1801310230573954e-13 7.665872070045295e-23
3.4340518103208963 1.1721373080431426e-21 1.0684513830710566e-13 1.0684513822949163e-13 7.761403750119074e-23
3.4469541582030403 9.941887256085074e-22 9.096488494076491e-14 9.09648848614126e-14 7.935233062457232e-23
3.472904465399547 9.44316537645337e-22 8.705222285415915e-14 8.705222277006062e-14 8.409853295061155e-23
3.4990501388274233 8.680392632885474e-22 8.062300261445946e-14 8.062300252542408e-14 8.903539107680209e-23
3.5253949054701885 5.965858274994474e-22 5.5827751624656404e-14 5.582775153114719e-14 9.350923290392554e-23
3.5519380250092896 3.4144863155085228e-22 3.219290656088736e-14 3.2192906462920814e-14 9.796653747403385e-23
3.578680990867387 2.4028163805313094e-22 2.2825116531071938e-14 2.2825116427629712e-14 1.034422232519898e-22
3.605625307711299 1.9935809008331584e-22 1.9080242529364044e-14 1.9080242419780624e-14 1.0958342633176418e-22
3.660119384959845 1.6949558250867556e-22 1.6467325432467956e-14 1.6467325309166668e-14 1.2330128969166285e-22
3.715437065384467 1.4834241661372413e-22 1.4630012328733527e-14 1.4630012190011488e-14 1.3872203725127063e-22
3.8285932144167436 1.3758064753900248e-22 1.3981894070659607e-14 1.3981893894836363e-14 1.75823244732618e-22
3.94519561050918 1.3548307845267665e-22 1.4188060458904665e-14 1.4188060236043073e-14 2.228615921107835e-22
4.06534921144712 1.369425284491917e-22 1.477765871635892e-14 1.477765843381163e-14 2.8254728964921305e-22
4.189162171576248 1.404611056101594e-22 1.5618980718406313e-14 1.5618980359997426e-14 3.584088834594852e-22
4.316745939156006 1.4548025947317593e-22 1.6669784640834903e-14 1.6669784186026905e-14 4.548080007721396e-22
4.448215356677963 1.5181195214547725e-22 1.7925084144557386e-14 1.792508356758581e-14 5.769715782990149e-22
4.58368876423945 1.594778965309853e-22 1.9403722407058115e-14 1.940372167509769e-14 7.319604244178038e-22
4.723288106065518 1.686548816619103e-22 2.114524815546666e-14 2.1145247226644728e-14 9.288219334775624e-22
4.867139040275056 1.7969771748198e-22 2.321591188582745e-14 2.321591070803311e-14 1.1777943310540892e-21
4.940699165968905 1.8636536999555714e-22 2.444123011077983e-14 2.4441228784476004e-14 1.326303830242632e-21
5.015371051989984 1.9326937261374587e-22 2.5729748363921076e-14 2.5729746870803213e-14 1.4931178531282753e-21
5.091171501069577 2.017023658642301e-22 2.725826141650488e-14 2.7258259734758145e-14 1.6817467354946166e-21
5.129500256944802 2.0603009461052395e-22 2.805273123715032e-14 2.805272945261957e-14 1.7845307479898153e-21
5.168117569889187 2.1054234372522785e-22 2.8882931554230134e-14 2.888292966065603e-14 1.8935741066569062e-21
5.20702561229733 2.1608636878049174e-22 2.9866650399570904e-14 2.9866648388802764e-14 2.010768140895828e-21
5.246226572918644 2.217717778381101e-22 3.088323271166146e-14 3.0883230576745386e-14 2.1349160754204846e-21
5.265937586045735 2.246689138364883e-22 3.140422831696793e-14 3.1404226117251173e-14 2.1997167541324063e-21
5.285722656980489 2.2760311548488396e-22 3.1933903413904046e-14 3.1933901147503005e-14 2.266401041251148e-21
5.305582063971359 2.30574982224356e-22 3.247241982862624e-14 3.247241749360644e-14 2.335019790079436e-21
5.3255160863122235 2.337688857478543e-22 3.304591950909772e-14 3.3045917103191196e-14 2.4059065179237647e-21
5.365609099470188 2.4173218413502894e-22 3.44288834872677e-14 3.4428880931113224e-14 2.556154477523654e-21
5.406003951863644 2.4999902368799868e-22 3.587435525430631e-14 3.5874352538950895e-14 2.7153554215336944e-21
5.446702915881641 2.5858410695353046e-22 3.7385651194415154e-14 3.738564831041302e-14 2.8840021478078984e-21
5.487708281020852 2.678627915183283e-22 3.9018704008315976e-14 3.901870094500946e-14 3.063306520195646e-21
5.529022354014368 2.807751233434239e-22 4.1207513118650734e-14 4.1207509859119845e-14 3.259530883801664e-21
5.570647458961463 2.9445022737689394e-22 4.3539857354594564e-14 4.353985388686358e-14 3.4677309756031785e-21
5.612585937458331 3.089431066934418e-22 4.602681743788737e-14 4.6026813749307703e-14 3.688579665130784e-21
5.654840148729818 3.248778378538051e-22 4.8765182287744386e-14 4.8765178363613204e-14 3.9241311823862626e-21
5.67608639626678 3.3573882734164687e-22 5.058479560779664e-14 5.0584791554608324e-14 4.0531883124792945e-21
5.686739436050992 3.413374759593966e-22 5.152484990399862e-14 5.152484578476748e-14 4.1192311306550876e-21
5.6974124697621304 3.4705180808197653e-22 5.248574984185327e-14 5.24857456555504e-14 4.1863028822923124e-21
5.718818669136295 3.5883867889853836e-22 5.447221162629934e-14 5.447220730270671e-14 4.323592606138945e-21
5.740305295436557 3.7183398641290455e-22 5.665699108776064e-14 5.6656986620584563e-14 4.467176073272472e-21
5.7835210386641895 4.0556249303630577e-22 6.226149388975558e-14 6.226148910532113e-14 4.784434435339012e-21
5.827062130521658 4.444259403491451e-22 6.874141724973705e-14 6.874141212198664e-14 5.127750426256162e-21
5.8489554468988025 4.717004740536918e-22 7.323421977034663e-14 7.323421444238719e-14 5.327959407406615e-21
5.870931020387893 5.009719685672786e-22 7.807101699834103e-14 7.807101146252802e-14 5.535813027988468e-21
5.892989160043636 5.324012340101306e-22 8.328065432233742e-14 8.328064857075136e-14 5.751586061919143e-21
5.915130176081913 5.681500486015657e-22 8.92065590938054e-14 8.920655311089973e-14 5.982905648785395e-21
5.95966208400165 6.68128470429506e-22 1.0569417352885267e-13 1.056941669862944e-13 6.542558299973296e-21
6.004529249263818 8.122633016600493e-22 1.294628698207025e-13 1.294628625751695e-13 7.245532998366707e-21
6.027089341400364 9.124684968798028e-22 1.4598053183914935e-13 1.4598052414852023e-13 7.690629078688406e-21
6.049734195844842 1.0308937896436522e-21 1.6554636536101719e-13 1.6554635717321894e-13 8.18779819913461e-21
6.095279466722835 1.373007689722623e-21 2.2214473536566378e-13 2.2214472583732312e-13 9.5283405653319e-21
6.141167624020661 1.8995597028393804e-21 3.0965160302013473e-13 3.0965159155433137e-13 1.1465803280112648e-20
6.164241091010745 2.2358215861787508e-21 3.6583579290575044e-13 3.6583578016854033e-13 1.2737209999284144e-20
6.187401249150058 2.61889413785108e-21 4.301259622840486e-13 4.301259481452451e-13 1.4138803541110637e-20
6.1990139391386085 2.805939990754817e-21 4.617112160484708e-13 4.617112011879327e-13 1.486053800558492e-20
6.204828454712694 2.9044707321155027e-21 4.783725121270144e-13 4.783724968913385e-13 1.5235676013381415e-20
6.210648424152782 2.9763945878200746e-21 4.906783366233533e-13 4.906783210751743e-13 1.5548179159787693e-20
6.233982942956859 3.2207498677808582e-21 5.329568399946104e-13 5.329568233350209e-13 1.6659589426414793e-20
6.239830258556775 3.2519840326885525e-21 5.386300927327066e-13 5.386300759181208e-13 1.6814585647207077e-20
6.245683058788269 3.254687431286478e-21 5.395835011110635e-13 5.395834841401246e-13 1.6970938791591696e-20
6.257405133728602 3.24796266061997e-21 5.394792375470632e-13 5.394792203018833e-13 1.7245179676768232e-20
6.269149208991335 3.199887235439755e-21 5.324915414048382e-13 5.324915240672668e-13 1.7337571234878713e-20
6.280915325867298 3.0793446571581424e-21 5.133938618596145e-13 5.133938446558322e-13 1.7203782120314105e-20
6.304513850009849 2.782088190720196e-21 4.655774410392434e-13 4.655774243136284e-13 1.6725614997415876e-20
6.32820103803542 2.4136365013603132e-21 4.054353065723889e-13 4.054352905874895e-13 1.598489933511965e-20
6.3519772230701035 2.0757378491404817e-21 3.4998615900185164e-13 3.4998614371652736e-13 1.5285324367105367e-20
6.375842739491607 1.791474765546638e-21 3.031919908948883e-13 3.031919762229056e-13 1.467198274193496e-20
6.399797922933955 1.5636340689250538e-21 2.65626144458131e-13 2.656261301942564e-13 1.4263874625374093e-20
6.42384311029221 1.3742093290538726e-21 2.343242583646725e-13 2.3432424444395564e-13 1.3920716840553925e-20
6.447978639727206 1.2361610349891343e-21 2.115768140776879e-13 2.1157680030907026e-13 1.376861765189729e-20
6.472204850670314 1.1211614141724284e-21 1.9261487817405318e-13 1.9261486450990074e-13 1.3664152463646285e-20
6.496522083828205 1.0464102955334788e-21 1.804481176789689e-13 1.8044810395278463e-13 1.3726184294434596e-20
