Dust emission spectrum from A.P. Jones, M. Kohler, N. Ysard, M. Bocchio, and L. Verstraete (2017), A&A, 602A, 46J 
inside the DustPedia framework.

lambda    nu*dP/dnu     j_nu    j_nu(carb.) j_nu(sil)
 (um)   (erg s-1 H-1) (Jy cm2 sr-1 H-1)
0.9927057738263894 1.8040058870042055e-24 4.753657977744871e-17 4.753657977744871e-17 3.557757897615754e-38
1.0001793341362166 1.8335856156055876e-24 4.8679768379834436e-17 4.8679768379834436e-17 4.751700600045431e-38
1.0077091589558085 1.86311664055669e-24 4.983617287496227e-17 4.983617287496227e-17 6.3354268097091e-38
1.0114953028030835 1.877860246195964e-24 5.041927210194114e-17 5.041927210194114e-17 7.310774339578614e-38
1.0152956718711033 1.892587316713122e-24 5.100560381350807e-17 5.100560381350807e-17 8.432744522705442e-38
1.0229392996569957 1.92197154188565e-24 5.218747079180003e-17 5.218747079180003e-17 1.1205717518216789e-37
1.0267826658714554 1.9365928264705823e-24 5.2782053209338664e-17 5.2782053209338664e-17 1.2909416617275675e-37
1.0306404723013447 1.9511911055952568e-24 5.3379737461051055e-17 5.3379737461051055e-17 1.4866114368011387e-37
1.03451277320114 1.9657649699835266e-24 5.398049739805921e-17 5.398049739805921e-17 1.7112507412438556e-37
1.0383996230291617 1.9803130185974152e-24 5.4584306558595236e-17 5.4584306558595236e-17 1.969049157936521e-37
1.0403485208654093 1.98757692648322e-24 5.488734624438086e-17 5.488734624438086e-17 2.111851956020445e-37
1.0423010764483396 1.9948338589048342e-24 5.519113817431354e-17 5.519113817431354e-17 2.26478813958794e-37
1.0462171883269815 2.009326107141421e-24 5.580096517661353e-17 5.580096517661353e-17 2.603922683937575e-37
1.0471985131304309 2.0129445403851873e-24 5.595388675616343e-17 5.595388675616343e-17 2.696197644684935e-37
1.048180758391296 2.0165610792672462e-24 5.610699340824895e-17 5.610699340824895e-17 2.7916747113299948e-37
1.0501480137395462 2.023788388566141e-24 5.641376020296164e-17 5.641376020296164e-17 2.9926740157194176e-37
1.0521189612883777 2.031007864646315e-24 5.672126209554539e-17 5.672126209554539e-17 3.2078352171103723e-37
1.0531058218030118 2.0346090176353964e-24 5.687513122785041e-17 5.687513122785041e-17 3.3210277109273686e-37
1.0540936079674168 2.0381898197144977e-24 5.70286696879605e-17 5.70286696879605e-17 3.438126968272178e-37
1.058054026499678 2.0524916356185072e-24 5.764460575173342e-17 5.764460575173342e-17 3.948350237876928e-37
1.0590464539527713 2.0560616370128268e-24 5.779903310084245e-17 5.779903310084245e-17 4.08708093276081e-37
1.06003981227728 2.059629415722175e-24 5.795363689055649e-17 5.795363689055649e-17 4.230585697069703e-37
1.0620293250338977 2.066758222102694e-24 5.826337199835446e-17 5.826337199835446e-17 4.5325663138472375e-37
1.0660195594769086 2.0809882521053177e-24 5.888493971725602e-17 5.888493971725602e-17 5.201261157812026e-37
1.070024785945596 2.095180409031007e-24 5.950927994325864e-17 5.950927994325864e-17 5.966372793861212e-37
1.0740450607676866 2.1093333869659804e-24 6.013636346290683e-17 6.013636346290683e-17 6.841487740765776e-37
1.07808044048254 2.1234458908871166e-24 6.076616082078904e-17 6.076616082078904e-17 7.842063388532818e-37
1.0861967418109137 2.1515191868582105e-24 6.203305248347643e-17 6.203305248347643e-17 1.0292304632867818e-36
1.0902777775684922 2.1654202244874426e-24 6.266842527647065e-17 6.266842527647065e-17 1.1784619154317547e-36
1.0943741465085532 2.1792747294497306e-24 6.33063450650945e-17 6.33063450650945e-17 1.3488466684751814e-36
1.1026131145906286 2.2068392325770416e-24 6.458970230648792e-17 6.458970230648792e-17 1.765196928823825e-36
1.1109141095355224 2.234203001835135e-24 6.588287561725865e-17 6.588287561725865e-17 2.3068132986870707e-36
1.1192775983109025 2.261330891558395e-24 6.718485130734177e-17 6.718485130734177e-17 3.0104193838023666e-36
1.1277040513999907 2.2880958024476438e-24 6.849183127052397e-17 6.849183127052397e-17 3.9231893673712657e-36
1.1361939428280308 2.3146284978279747e-24 6.980767899889636e-17 6.980767899889636e-17 5.1057745948319497e-36
1.1447477501889525 2.3409201818250936e-24 7.113213393665818e-17 7.113213393665818e-17 6.63590638326202e-36
1.1533659546722406 2.366976786176929e-24 7.246537756917232e-17 7.246537756917232e-17 8.613142692228844e-36
1.1707974979042381 2.4184706915013815e-24 7.516091307719746e-17 7.516091307719746e-17 1.4453731549510977e-35
1.1884924949847024 2.468913803987587e-24 7.788822459865951e-17 7.788822459865951e-17 2.412922416043828e-35
1.2064549276569216 2.5187065435622927e-24 8.065997909432414e-17 8.065997909432414e-17 4.0077595625628135e-35
1.2246888378427687 2.5672996196828916e-24 8.345872565263269e-17 8.345872565263269e-17 6.622938093656022e-35
1.2431983285522175 2.614579699905079e-24 8.628031768721464e-17 8.628031768721464e-17 1.0889376676574021e-34
1.2619875648066055 2.660529982764598e-24 8.912358878667108e-17 8.912358878667108e-17 1.7814182690737916e-34
1.3004222497298317 2.7476741993667838e-24 9.484600883405566e-17 9.484600883405566e-17 4.6957409277422755e-34
1.3400274889804893 2.828399215499461e-24 1.0060599222166757e-16 1.0060599222166757e-16 1.2128973741453561e-33
1.3808389325824078 2.902414295538463e-24 1.0638290879584202e-16 1.0638290879584202e-16 3.069426852748771e-33
1.4228933163050095 2.9700986715627012e-24 1.121792804433246e-16 1.121792804433246e-16 7.608911500934658e-33
1.466228494730424 3.0331207801210044e-24 1.1804858692964407e-16 1.1804858692964407e-16 1.8474992852108264e-32
1.5108834753276823 3.090244850699957e-24 1.2393480728257936e-16 1.239348072825793e-16 4.392626640698416e-32
1.5568984535646726 3.140475279450479e-24 1.297851787159329e-16 1.297851787159328e-16 1.022491178126115e-31
1.6043148490894465 3.183918456380522e-24 1.3558791197139928e-16 1.3558791197139908e-16 2.330146082492706e-31
1.6531753430134553 3.220721563400094e-24 1.4133233469849477e-16 1.4133233469849425e-16 5.198783449892084e-31
1.7035239163302658 3.2513445514380317e-24 1.4702143697196378e-16 1.4702143697196267e-16 1.1357256711528723e-30
1.755405889504358 3.2783878321617235e-24 1.527591781976446e-16 1.5275917819764217e-16 2.4303166877775812e-30
1.8088679632656115 3.3012209796445156e-24 1.5850789427767265e-16 1.585078942776676e-16 5.094879376581723e-30
1.8639582606462262 3.319421208825442e-24 1.6423585683614834e-16 1.6423585683613787e-16 1.0466001114362283e-29
1.9207263702978936 3.3333109491328196e-24 1.6994592714270123e-16 1.6994592714268015e-16 2.107294075429663e-29
1.979223391128241 3.343629165632702e-24 1.756638321739511e-16 1.7566383217390948e-16 4.160367440116879e-29
2.039501978296691 3.35125749202463e-24 1.8142676712049145e-16 1.8142676712041092e-16 8.056932904723731e-29
2.1016163906111602 3.3586491399583025e-24 1.8736459028176205e-16 1.8736459028160889e-16 1.5313048788066546e-28
2.1656225393682647 3.367228921517803e-24 1.9356411170219332e-16 1.9356411170190758e-16 2.8576508386485204e-28
2.231578038680979 3.3771041903725915e-24 2.0004420340700136e-16 2.0004420340647753e-16 5.237801682067398e-28
2.299542257339062 3.38912916601969e-24 2.068706832011654e-16 2.0687068320022208e-16 9.432968956171993e-28
2.369576372248914 3.405186681885304e-24 2.1418106311508423e-16 2.141810631134143e-16 1.6699561377814027e-27
2.4417434235010123 3.427499772574877e-24 2.2215029504349105e-16 2.221502950405836e-16 2.9074496012254727e-27
2.5161083711144245 3.459872626887503e-24 2.3107815241909634e-16 2.310781524141155e-16 4.980792299552257e-27
2.5927381535095444 3.5085318647680734e-24 2.41464626114067e-16 2.414646261056663e-16 8.400675724558015e-27
2.6717017477616296 3.58091774422259e-24 2.5395206740646233e-16 2.5395206739250694e-16 1.3955396291104137e-26
2.753070231689431 3.6882314644761904e-24 2.6952862272019165e-16 2.695286226973504e-16 2.284127651201177e-26
2.836916847834745 3.855848318288908e-24 2.90359460493988e-16 2.9035946045713143e-16 3.6856620371759503e-26
2.9233170693905177 4.1396605860311906e-24 3.21225556325086e-16 3.212255562664211e-16 5.86649892522963e-26
2.967498994190263 4.380310522283903e-24 3.450363988412512e-16 3.4503639876759248e-16 7.36586600120109e-26
3.0123486681368425 4.661325758339643e-24 3.7272122624959063e-16 3.727212261574039e-16 9.21867688392834e-26
3.0578761833420214 5.289209784638508e-24 4.293190128642763e-16 4.293190127491118e-16 1.1516455769170492e-25
3.1040917844459814 6.0984328331306856e-24 5.024839939575915e-16 5.024839938141485e-16 1.4344305307080951e-25
3.127460860933648 6.9539263291914e-24 5.772865003752618e-16 5.772865002150808e-16 1.601809520976608e-25
3.1510058709225794 8.093835463073823e-24 6.769756016730792e-16 6.769756014942107e-16 1.7886846275504964e-25
3.162844764501044 9.154515955807703e-24 7.68568703598784e-16 7.685687034093803e-16 1.894038302478536e-25
3.1747281389236908 1.0388186185769853e-23 8.754184576572065e-16 8.754184574566877e-16 2.0051900235682812e-25
3.1986289994194426 1.382966939653501e-23 1.1742081803202007e-15 1.1742081800950953e-15 2.251054372424644e-25
3.2227097969389145 2.194117004986209e-23 1.87694011204566e-15 1.8769401117892344e-15 2.564252977202293e-25
3.2348180950136065 2.963341562682509e-23 2.5444915277952586e-15 2.544491527518638e-15 2.766208880581871e-25
3.240889293275058 3.5384198580345966e-23 3.043988397864849e-15 3.0439883975758145e-15 2.8903495332349563e-25
3.2469718861334385 4.203688500485874e-23 3.6230847084528935e-15 3.623084708149776e-15 3.031165785827337e-25
3.2714166318528037 7.752417484269069e-23 6.731974197154139e-15 6.731974196786286e-15 3.6785433420416033e-25
3.2744851364798273 7.97423371376896e-23 6.931088058886057e-15 6.931088058511387e-15 3.746703007715404e-25
3.2775565192852394 8.202421027878254e-23 7.136112373546174e-15 7.136112373164567e-15 3.816073155881248e-25
3.283707930232385 7.982887732971028e-23 6.958153038983376e-15 6.958153038593856e-15 3.895203105270252e-25
3.2898708863219004 7.286827742606035e-23 6.363364345108639e-15 6.36336434471595e-15 3.9268948564916147e-25
3.29141343181113 7.122681845579542e-23 6.2229371673423306e-15 6.222937166948846e-15 3.934845989680069e-25
3.292184975758714 7.042026717834983e-23 6.153912687915511e-15 6.153912687521627e-15 3.9388258013780235e-25
3.295272960557952 6.532919628008484e-23 5.7143671837438245e-15 5.714367183349384e-15 3.94440837780604e-25
3.3076538914384823 4.7693044365132377e-23 4.187400858170826e-15 4.18740085777471e-15 3.9611574267589553e-25
3.310756385682612 4.4103836998078267e-23 3.8759041881377556e-15 3.8759041877412204e-15 3.9653542529047914e-25
3.313861789986515 4.07923041435093e-23 3.5882447787255566e-15 3.5882447783286e-15 3.969555442667796e-25
3.3200813396944477 3.614819220995852e-23 3.1856990035432913e-15 3.185699003142622e-15 4.0066962587403477e-25
3.345076488085796 2.786324808079389e-23 2.4740429083157233e-15 2.4740429078825866e-15 4.331364959349417e-25
3.3482140837626964 2.8173808977843864e-23 2.503964789720305e-15 2.503964789281023e-15 4.392823497737721e-25
3.3513546224236106 2.848780315876562e-23 2.5342460478299518e-15 2.5342460473844414e-15 4.455099830734621e-25
3.3576445397418455 3.078290338012642e-23 2.7435553699389437e-15 2.743555369478042e-15 4.609022151913923e-25
3.3702598118196083 3.9248605604630037e-23 3.5112119575337957e-15 3.5112119570356967e-15 4.980997186219721e-25
3.382922481734668 4.1175929993318373e-23 3.697472019194567e-15 3.6974720186660056e-15 5.285612599074734e-25
3.389271646505754 4.2174406114812324e-23 3.794239904394034e-15 3.794239903849591e-15 5.444431136597179e-25
3.395632727569191 4.3250189408828535e-23 3.8983260274617536e-15 3.898326026900159e-15 5.615956272588903e-25
3.421196662673239 4.8415174690863127e-23 4.396721690725617e-15 4.396721690088712e-15 6.3690520006884895e-25
3.4276182099114902 4.7373315122414395e-23 4.3101824242752495e-15 4.31018242362498e-15 6.502704546274187e-25
3.4340518103208963 4.2809619836983926e-23 3.9022729854007915e-15 3.902272984740469e-15 6.603220013905696e-25
3.4469541582030403 3.6310310789697084e-23 3.3222698649359404e-15 3.3222698642603095e-15 6.7563022560487195e-25
3.472904465399547 3.448866176833516e-23 3.1793519974617137e-15 3.179351996723273e-15 7.384405332317737e-25
3.4990501388274233 3.170263743028101e-23 2.9445232819810492e-15 2.9445232811767834e-15 8.042657992020529e-25
3.5253949054701885 2.178855200213998e-23 2.0389453006868614e-15 2.038945299832326e-15 8.545358334017903e-25
3.5519380250092896 1.2471924735800537e-23 1.175894323636349e-15 1.1758943227343699e-15 9.019794722988486e-25
3.578680990867387 8.778274937810136e-24 8.338762379878567e-16 8.338762370129809e-16 9.74875720121969e-25
3.605625307711299 7.284428708025146e-24 6.971809690737686e-16 6.971809680098026e-16 1.0639658782968613e-24
3.660119384959845 6.194842610133291e-24 6.018592800715775e-16 6.018592787961498e-16 1.2754278446866732e-24
3.715437065384467 5.4236629556716544e-24 5.34899307424594e-16 5.348993058993607e-16 1.52523336743768e-24
3.8285932144167436 5.03273015366759e-24 5.114607406891762e-16 5.114607385124851e-16 2.1766910286685966e-24
3.94519561050918 4.958185387221382e-24 5.192311456439659e-16 5.192311425648057e-16 3.079160295714694e-24
4.06534921144712 5.013546690399438e-24 5.410187966314781e-16 5.410187923150379e-16 4.316440302132756e-24
4.189162171576248 5.1441147806410165e-24 5.720147881727168e-16 5.720147821755256e-16 5.997191257157388e-24
4.316745939156006 5.329483044832257e-24 6.106762176947836e-16 6.10676209433326e-16 8.26145773339299e-24
4.448215356677963 5.5627710293938974e-24 6.568200814863335e-16 6.568200701984615e-16 1.1287872050879445e-23
4.58368876423945 5.8447513878493255e-24 7.111326142056391e-16 7.111325989022089e-16 1.530343000483231e-23
4.723288106065518 6.181857797473746e-24 7.750556396667324e-16 7.750556190707686e-16 2.059596377417752e-23
4.867139040275056 6.5870176365756435e-24 8.510048050914539e-16 8.510047775607176e-16 2.7530736352185855e-23
4.940699165968905 6.831399536847598e-24 8.959164895428125e-16 8.959164577835375e-16 3.1759274791683035e-23
5.015371051989984 7.084403494153909e-24 9.431391883149262e-16 9.431391517414058e-16 3.6573520464088786e-23
5.091171501069577 7.393171615272242e-24 9.991206782464066e-16 9.991206361695394e-16 4.207686720666656e-23
5.129500256944802 7.551612450765238e-24 1.0282155861205643e-15 1.028215541018152e-15 4.510241243105534e-23
5.168117569889187 7.716783507183354e-24 1.0586152215901366e-15 1.0586151732616502e-15 4.832848626313621e-23
5.20702561229733 7.919593338416941e-24 1.094616596503349e-15 1.0946165447073224e-15 5.179602656955335e-23
5.246226572918644 8.127559278167519e-24 1.1318180654560143e-15 1.1318180099671665e-15 5.548884764011838e-23
5.265937586045735 8.233527198543071e-24 1.1508827081667148e-15 1.1508826507429121e-15 5.742380281004168e-23
5.285722656980489 8.34084673776412e-24 1.1702642714116357e-15 1.1702642119915973e-15 5.942003822541904e-23
5.305582063971359 8.449539715782783e-24 1.1899686529849676e-15 1.1899685915056725e-15 6.147929514815406e-23
5.3255160863122235 8.566334288423398e-24 1.2109498339680636e-15 1.210949770356466e-15 6.361159798762503e-23
5.365609099470188 8.857412560407675e-24 1.2615234753788315e-15 1.261523407233141e-15 6.814569068392048e-23
5.406003951863644 9.159560574046684e-24 1.3143784530005858e-15 1.3143783800280605e-15 7.297252557277053e-23
5.446702915881641 9.47331433931379e-24 1.3696357046733856e-15 1.3696356265643777e-15 7.810900806108383e-23
5.487708281020852 9.812375459727524e-24 1.4293369060755657e-15 1.4293368224805649e-15 8.359500071861762e-23
5.529022354014368 1.0284062119837885e-23 1.509323973113889e-15 1.5093238834823643e-15 8.963152482926585e-23
5.570647458961463 1.0783567067871107e-23 1.5945478327236484e-15 1.5945477366602955e-15 9.60633527708869e-23
5.612585937458331 1.131289626587163e-23 1.685412620776512e-15 1.6854125178628688e-15 1.0291364293231191e-22
5.654840148729818 1.1894832941233071e-23 1.7854517270042943e-15 1.785451616753609e-15 1.1025068562370638e-22
5.67608639626678 1.2291430993995933e-23 1.851914267651624e-15 1.8519141533612454e-15 1.1429037876269318e-22
5.686739436050992 1.2495862699708168e-23 1.886248933592121e-15 1.8862488172315306e-15 1.163605907299216e-22
5.6974124697621304 1.2704513449353674e-23 1.9213440161871523e-15 1.9213438977221033e-15 1.1846504864036963e-22
5.718818669136295 1.3134878930190825e-23 1.9938929297348082e-15 1.993892806956059e-15 1.227787491623201e-22
5.740305295436557 1.360935064477345e-23 2.0736804228941746e-15 2.073680295592041e-15 1.2730213378930208e-22
5.7835210386641895 1.4840758767799738e-23 2.278336451733921e-15 2.278336314381682e-15 1.3735223883930458e-22
5.827062130521658 1.6259512931812562e-23 2.514934123433807e-15 2.51493397516087e-15 1.4827293673880033e-22
5.8489554468988025 1.725522722783679e-23 2.678973570094036e-15 2.678973415410618e-15 1.5468341812820952e-22
5.870931020387893 1.8323775964851067e-23 2.855560619323479e-15 2.8555604579730177e-15 1.6135046178750122e-22
5.892989160043636 1.947102290440098e-23 3.045747124945389e-15 3.0457469566619225e-15 1.6828346620859526e-22
5.915130176081913 2.0775914403969324e-23 3.262074588512892e-15 3.2620744127793827e-15 1.757335088645133e-22
5.95966208400165 2.4425364667297615e-23 3.863955580266275e-15 3.8639553864166094e-15 1.9384966543755259e-22
6.004529249263818 2.96864877931941e-23 4.731591217711656e-15 4.731591000956071e-15 2.167555845403816e-22
6.027089341400364 3.334415322067789e-23 5.3345372881644136e-15 5.334537056828565e-15 2.31335848119952e-22
6.049734195844842 3.7666704063159e-23 6.0487181273450844e-15 6.04871787968528e-15 2.4765980598091287e-22
6.095279466722835 5.015409585118677e-23 8.114643809909642e-15 8.114643518031656e-15 2.918779842059309e-22
6.141167624020661 6.937333126275672e-23 1.1308706538809874e-14 1.1308706182751352e-14 3.5605852016437242e-22
6.164241091010745 8.164743873689157e-23 1.3359543388291797e-14 1.335954299003692e-14 3.9825487581105038e-22
6.187401249150058 9.562960000214817e-23 1.570616128741802e-14 1.5706160842581693e-14 4.448363282494258e-22
6.1990139391386085 1.0245695684783746e-22 1.6859065516264022e-14 1.6859065047438136e-14 4.688258835417204e-22
6.204828454712694 1.060533688047592e-22 1.7467215590674402e-14 1.7467215109372785e-14 4.813016173239666e-22
6.210648424152782 1.0867876049669016e-22 1.7916412576821733e-14 1.791641208513996e-14 4.916817761472491e-22
6.233982942956859 1.175984878359189e-22 1.945972864647196e-14 1.9459728117888044e-14 5.2858391966117095e-22
6.239830258556775 1.187387455449144e-22 1.9666843650196873e-14 1.966684311648926e-14 5.337076155030803e-22
6.245683058788269 1.1883766224447602e-22 1.9701689704925865e-14 1.970168916604884e-14 5.388770260393566e-22
6.257405133728602 1.1859270598967642e-22 1.969797971561086e-14 1.9697979167679392e-14 5.479314653630595e-22
6.269149208991335 1.168384746370647e-22 1.9443028731082922e-14 1.9443028180171935e-14 5.509109900611424e-22
6.280915325867298 1.1243917827104713e-22 1.8746061381179774e-14 1.8746060834844164e-14 5.46335613721693e-22
6.304513850009849 1.0159013693222565e-22 1.700092619116001e-14 1.7000925661008102e-14 5.301519075099542e-22
6.32820103803542 8.81423534701336e-23 1.4805884018175414e-14 1.480588351298771e-14 5.051877023216022e-22
6.3519772230701035 7.580949551642642e-23 1.2782092961617773e-14 1.2782092480025482e-14 4.815922900887948e-22
6.375842739491607 6.543378640055072e-23 1.107411633817812e-14 1.1074115877290275e-14 4.608878464155228e-22
6.399797922933955 5.711781314762842e-23 9.703027573909741e-15 9.703027126886577e-15 4.470231655702709e-22
6.42384311029221 5.020358542189871e-23 8.560499243105283e-15 8.560498807769343e-15 4.353359392739413e-22
6.447978639727206 4.5164816833333323e-23 7.730245318792942e-15 7.730244888760421e-15 4.300325202103072e-22
6.472204850670314 4.0967097259910143e-23 7.0381234567252114e-15 7.0381230303992625e-15 4.263259482902537e-22
6.496522083828205 3.823868090506994e-23 6.5940654648555504e-15 6.594065036668416e-15 4.281871345659866e-22
6.520930681187647 3.594013283088513e-23 6.220978415814704e-15 6.2209779847303625e-15 4.310843414747493e-22
6.57002334288761 3.358844193919205e-23 5.857687574008045e-15 5.8576871283896324e-15 4.456184123860291e-22
