Dust emission spectrum from A.P. Jones, M. Kohler, N. Ysard, M. Bocchio, and L. Verstraete (2017), A&A, 602A, 46J 
inside the DustPedia framework.

lambda    nu*dP/dnu     j_nu    j_nu(carb.) j_nu(sil)
 (um)   (erg s-1 H-1) (Jy cm2 sr-1 H-1)
0.9927057738263894 3.326754073639717e-20 8.766185939899774e-13 8.766185279985786e-13 6.599139895348949e-20
1.0001793341362166 3.382538274726251e-20 8.980283132032271e-13 8.980282338086186e-13 7.939460849468442e-20
1.0077091589558085 3.438563760301092e-20 9.197752533021367e-13 9.19775157910194e-13 9.539194275301551e-20
1.0114953028030835 3.466664798501498e-20 9.307759515967095e-13 9.307758470878333e-13 1.0450887626168437e-19
1.0152956718711033 3.494823581688532e-20 9.418618915574736e-13 9.418617770988072e-13 1.1445866649617045e-19
1.0229392996569957 3.5512836445125454e-20 9.642833279912435e-13 9.64283190837566e-13 1.3715367750885473e-19
1.0267826658714554 3.579520959214625e-20 9.75602424788179e-13 9.75602274721668e-13 1.500665110481143e-19
1.0306404723013447 3.60781151556251e-20 9.870075307202224e-13 9.870073665802727e-13 1.6413994991188482e-19
1.03451277320114 3.636154610044074e-20 9.984989938449762e-13 9.984988143720092e-13 1.7947296713427908e-19
1.0383996230291617 3.664549567691069e-20 1.010077170242959e-12 1.010076974070473e-12 1.9617248607550556e-19
1.0403485208654093 3.678766292248927e-20 1.0158988894688636e-12 1.0158986843984465e-12 2.0507041704462652e-19
1.0423010764483396 3.692995742769302e-20 1.0217424243452034e-12 1.0217422099912265e-12 2.1435397662250645e-19
1.0462171883269815 3.721492519464317e-20 1.0334951292654473e-12 1.0334948951233546e-12 2.3414209263443164e-19
1.0471985131304309 3.7286245508788883e-20 1.0364470142640166e-12 1.0364467749083225e-12 2.393556938646167e-19
1.048180758391296 3.7357596993249235e-20 1.0394043948373153e-12 1.039404150157048e-12 2.4468026747894756e-19
1.0501480137395462 3.750039312562173e-20 1.0453356671368589e-12 1.0453354114655057e-12 2.556713532207721e-19
1.0521189612883777 3.7643312909164925e-20 1.0512889953959861e-12 1.0512887282621606e-12 2.671338255969093e-19
1.0531058218030118 3.771472518677967e-20 1.0542713246761005e-12 1.0542710516279013e-12 2.7304819906511247e-19
1.0540936079674168 3.778586091780138e-20 1.0572505859431474e-12 1.0572503068541203e-12 2.7908902690630617e-19
1.058054026499678 3.807069662737901e-20 1.0692225291908623e-12 1.0692222246357203e-12 3.045551418151132e-19
1.0590464539527713 3.814197837563452e-20 1.0722292712332551e-12 1.0722289599726972e-12 3.1126055779097247e-19
1.06003981227728 3.8213289106594405e-20 1.0752415285838774e-12 1.075241210476899e-12 3.1810697857295327e-19
1.0620293250338977 3.835599723587396e-20 1.0812826151711028e-12 1.0812822829369548e-12 3.3223414800686416e-19
1.0660195594769086 3.8641758273121443e-20 1.0934312599696394e-12 1.0934308976616275e-12 3.6230801182135794e-19
1.070024785945596 3.8927975611264406e-20 1.1056688905116598e-12 1.1056684955389075e-12 3.9497275225780483e-19
1.0740450607676866 3.9214645471158036e-20 1.117995944924863e-12 1.1179955144854123e-12 4.3043945036974003e-19
1.07808044048254 3.950176442870016e-20 1.1304128729065517e-12 1.1304124039712267e-12 4.68935325216193e-19
1.0861967418109137 4.00769021613298e-20 1.1555056493729334e-12 1.1555050933617483e-12 5.560111845113108e-19
1.0902777775684922 4.036392565668771e-20 1.1681537053529167e-12 1.1681531002157712e-12 6.051371458233922e-19
1.0943741465085532 4.0651371303445463e-20 1.1808927549740402e-12 1.1808920965873935e-12 6.583866464323687e-19
1.1026131145906286 4.122752354694346e-20 1.2066458822291385e-12 1.2066451036419683e-12 7.785871697278266e-19
1.1109141095355224 4.1805351858049144e-20 1.232769266864867e-12 1.2327683473379353e-12 9.195269317956648e-19
1.1192775983109025 4.2384407965811696e-20 1.2592540780134818e-12 1.2592529934499146e-12 1.0845635673713628e-18
1.1277040513999907 4.2962640247503115e-20 1.286043138412487e-12 1.286041860852288e-12 1.2775601990577004e-18
1.1361939428280308 4.354250089169058e-20 1.313213298768518e-12 1.3132117958130024e-12 1.5029555155715028e-18
1.1447477501889525 4.412401042567385e-20 1.3407697724125324e-12 1.3407680065700828e-12 1.7658424491550126e-18
1.1533659546722406 4.470739633726486e-20 1.3687241778772404e-12 1.3687221058176003e-12 2.0720596400942123e-18
1.1707974979042381 4.5881578514019844e-20 1.4259016438177443e-12 1.4258988016303992e-12 2.8421873450800986e-18
1.1884924949847024 4.706368888212343e-20 1.4847448963879238e-12 1.4847410174398763e-12 3.878948047021576e-18
1.2064549276569216 4.8261687107410773e-20 1.5455499105643584e-12 1.5455446429029916e-12 5.267661367210042e-18
1.2246888378427687 4.946818654928209e-20 1.6081301060838934e-12 1.6081229877064342e-12 7.118377458924552e-18
1.2431983285522175 5.068236909698547e-20 1.672502432030407e-12 1.6724928594905367e-12 9.572539870156744e-18
1.2619875648066055 5.1906197621118536e-20 1.7387763499125221e-12 1.7387635388944983e-12 1.2811018023795291e-17
1.3004222497298317 5.437625351303111e-20 1.8769949589541377e-12 1.8769723375721388e-12 2.2621381998900243e-17
1.3400274889804893 5.6887231535909e-20 2.023475449311075e-12 2.0234362394223305e-12 3.920988874405701e-17
1.3808389325824078 5.944984971307674e-20 2.179030040499243e-12 2.178963295540964e-12 6.674495827841806e-17
1.4228933163050095 6.208666611609745e-20 2.3449852345694103e-12 2.3448735986604423e-12 1.1163590896747297e-16
1.466228494730424 6.484348011068397e-20 2.5236981160906307e-12 2.5235145594989437e-12 1.835565916863137e-16
1.5108834753276823 6.77174241495889e-20 2.715819074903087e-12 2.715522244322185e-12 2.968305809027054e-16
1.5568984535646726 7.070872102688108e-20 2.922151323813187e-12 2.9216787380472803e-12 4.725857659070198e-16
1.6043148490894465 7.383657753897757e-20 3.1443479199543267e-12 3.1436057507300246e-12 7.421692243029666e-16
1.6531753430134553 7.712152179115905e-20 3.3842617300759584e-12 3.383113429942557e-12 1.1483001334029025e-15
1.7035239163302658 8.058729652015078e-20 3.644049392070134e-12 3.642298583101387e-12 1.7508089687472695e-15
1.755405889504358 8.429667914217297e-20 3.9278731162377134e-12 3.925241216358596e-12 2.6318998791181017e-15
1.8088679632656115 8.825388587672918e-20 4.237504153281112e-12 4.23360204085657e-12 3.902112424541758e-15
1.8639582606462262 9.246198220544088e-20 4.574765272905094e-12 4.569057044274095e-12 5.708228630999454e-15
1.9207263702978936 9.693743381683963e-20 4.942269808078628e-12 4.934027746658704e-12 8.242061419926028e-15
1.979223391128241 1.017031955335021e-19 5.343168212366939e-12 5.3314173685628e-12 1.1750843804139347e-14
2.039501978296691 1.0678063076009843e-19 5.7807747318716564e-12 5.764226428397212e-12 1.654830347444476e-14
2.1016163906111602 1.1222320608438694e-19 6.260450005911588e-12 6.237421488461694e-12 2.302851744989147e-14
2.1656225393682647 1.1806157234344558e-19 6.786732921776626e-12 6.75505524847491e-12 3.16776733017161e-14
2.231578038680979 1.2429261661701958e-19 7.362526021970405e-12 7.319438870567017e-12 4.308715140338794e-14
2.299542257339062 1.3093119185928075e-19 7.991971915335052e-12 7.934005105692855e-12 5.796680964219811e-14
2.369576372248914 1.380041633377226e-19 8.680251974207839e-12 8.603093209501441e-12 7.715876470639822e-14
2.4417434235010123 1.4554249616446287e-19 9.433205137753296e-12 9.331558587518087e-12 1.0164655023521024e-13
2.5161083711144245 1.5360097548887582e-19 1.025870991605565e-11 1.0126142123867354e-11 1.3256779218829451e-13
2.5927381535095444 1.6226363941817573e-19 1.1167328824191137e-11 1.099610918181741e-11 1.7121964237372693e-13
2.6717017477616296 1.716014651981925e-19 1.2169658721529746e-11 1.1950606785054536e-11 2.1905193647521096e-13
2.753070231689431 1.817122952591097e-19 1.3279173268879537e-11 1.3001508890623367e-11 2.7766437825617235e-13
2.836916847834745 1.928506563495329e-19 1.4522358742164146e-11 1.4173548982756598e-11 3.4880975940755046e-13
2.9233170693905177 2.0555749390803375e-19 1.595066043825196e-11 1.551637400414811e-11 4.342864341038479e-13
2.967498994190263 2.1296897043476408e-19 1.6775533663633097e-11 1.629353471167174e-11 4.819989519613565e-13
3.0123486681368425 2.208536620389329e-19 1.7659535506521828e-11 1.7125267964503937e-11 5.34267542017889e-13
3.0578761833420214 2.3245446083321353e-19 1.886805850481755e-11 1.827643018410272e-11 5.916283207148377e-13
3.1040917844459814 2.45694676507731e-19 2.0244158741081853e-11 1.959032254065816e-11 6.538362004236954e-13
3.127460860933648 2.569061035689054e-19 2.1327293162679107e-11 2.0640233466362243e-11 6.870596963168679e-13
3.1510058709225794 2.7079153632857185e-19 2.2649245103926614e-11 2.1927615739712927e-11 7.216293642136911e-13
3.162844764501044 2.8281437055183514e-19 2.3743721151770307e-11 2.300422532218201e-11 7.394958295883006e-13
3.1747281389236908 2.963070969440346e-19 2.4969970422262692e-11 2.4212261274339093e-11 7.577091479235973e-13
3.1986289994194426 3.322957838346964e-19 2.8213575934242755e-11 2.7418288378360146e-11 7.95287555882604e-13
3.2227097969389145 4.1372579962412027e-19 3.539184769718138e-11 3.45568026050423e-11 8.350450921390715e-13
3.2348180950136065 4.894391551700488e-19 4.202599522729696e-11 4.116974861620079e-11 8.562466110961727e-13
3.240889293275058 5.458178688466734e-19 4.695494957569692e-11 4.608751957954601e-11 8.674299961509136e-13
3.2469718861334385 6.111007958470521e-19 5.266969587544223e-11 5.1790694412403234e-11 8.790014630389933e-13
3.2714166318528037 9.52505580385197e-19 8.271281832808886e-11 8.178604831049332e-11 9.267700175955466e-13
3.2744851364798273 9.739078969888892e-19 8.465065907986875e-11 8.371827403492908e-11 9.32385044939713e-13
3.2775565192852394 9.95872665440127e-19 8.66409957032162e-11 8.570296887259958e-11 9.380268306166208e-13
3.283707930232385 9.7523186777254e-19 8.500448473586917e-11 8.405639777922736e-11 9.480869566417935e-13
3.2898708863219004 9.089480850511838e-19 7.937566304951407e-11 7.841844764726634e-11 9.572154022477125e-13
3.29141343181113 8.93285151954402e-19 7.80444430012273e-11 7.708493607385155e-11 9.59506927375758e-13
3.292184975758714 8.855842266669134e-19 7.738976614361477e-11 7.642911204053828e-11 9.606541030765092e-13
3.295272960557952 8.375466158341408e-19 7.326048947333072e-11 7.229537814521283e-11 9.651113281178952e-13
3.3076538914384823 6.698558471058789e-19 5.881266306984926e-11 5.782966263990741e-11 9.830004299418425e-13
3.310756385682612 6.353705809481975e-19 5.5837216517554754e-11 5.484970970819822e-11 9.875068093565128e-13
3.313861789986515 6.034141587474396e-19 5.307858308070326e-11 5.208655624051379e-11 9.920268401894677e-13
3.3200813396944477 5.589236656929462e-19 4.9257305995076927e-11 4.8255544444431486e-11 1.0017615506454247e-12
3.345076488085796 4.823261124087407e-19 4.2826862627077377e-11 4.17816850451851e-11 1.0451775818922785e-12
3.3482140837626964 4.857311099085548e-19 4.3169654392107836e-11 4.211859391822643e-11 1.0510604738814014e-12
3.3513546224236106 4.89164914673716e-19 4.351561420303828e-11 4.2458645767383856e-11 1.056968435654411e-12
3.3576445397418455 5.121486607401599e-19 4.5645733640831565e-11 4.4576408198513315e-11 1.0693254423182483e-12
3.3702598118196083 5.945780713593657e-19 5.319143449004745e-11 5.209619194119929e-11 1.095242548848142e-12
3.382922481734668 6.149629441840658e-19 5.522178319545095e-11 5.410139472990025e-11 1.1203884655506931e-12
3.389271646505754 6.254543534479968e-19 5.626928947781629e-11 5.51361641657156e-11 1.1331253121006745e-12
3.395632727569191 6.369879181492772e-19 5.7414467183653986e-11 5.626821572242352e-11 1.1462514612304497e-12
3.421196662673239 6.926572291147653e-19 6.290220128156475e-11 6.170166192925681e-11 1.2005393523079323e-12
3.4276182099114902 6.833791679505482e-19 6.217611900718887e-11 6.096351375331277e-11 1.2126052538761079e-12
3.4340518103208963 6.39802015667906e-19 5.832058614986623e-11 5.7096592656601914e-11 1.2239934932643102e-12
3.4469541582030403 5.774364028186669e-19 5.2833465709299456e-11 5.1587662525683045e-11 1.2458031836164123e-12
3.472904465399547 5.615521383466352e-19 5.1766923423235355e-11 5.047080540054654e-11 1.2961180226888206e-12
3.4990501388274233 5.367789266477716e-19 4.9855727311869623e-11 4.8508229293586886e-11 1.3474980182827348e-12
3.5253949054701885 4.448638294004605e-19 4.162979780907624e-11 4.023255844780395e-11 1.3972393612722778e-12
3.5519380250092896 3.574222327149644e-19 3.369895052240945e-11 3.2251856417674643e-11 1.447094104734812e-12
3.578680990867387 3.2460487271652286e-19 3.083524861217278e-11 2.933352925083717e-11 1.5017193613356143e-12
3.605625307711299 3.1329146434554307e-19 2.998462274389956e-11 2.8425456378708416e-11 1.55916636519114e-12
3.660119384959845 3.0908578720023757e-19 3.0029197038904133e-11 2.834972361076532e-11 1.6794734281388189e-12
3.715437065384467 3.0770146749861716e-19 3.034652101425782e-11 2.8540779342045565e-11 1.8057416722122574e-12
3.8285932144167436 3.162195526791571e-19 3.213641139011169e-11 3.006124277658122e-11 2.075168613530458e-12
3.94519561050918 3.2765468589635042e-19 3.431265768562106e-11 3.194661233466607e-11 2.3660453509550072e-12
4.06534921144712 3.4012304907794056e-19 3.6703151298290974e-11 3.402580720770072e-11 2.6773440905902586e-12
4.189162171576248 3.5301921874941584e-19 3.9254997651642995e-11 3.624603829668126e-11 3.0089593549617255e-12
4.316745939156006 3.660311445726027e-19 4.194150033797977e-11 3.858264042716782e-11 3.358859910811947e-12
4.448215356677963 3.7894785338356904e-19 4.4743987955511164e-11 4.102270996388245e-11 3.7212779916287066e-12
4.58368876423945 3.9167582919888725e-19 4.765531292201928e-11 4.355936661797887e-11 4.0959463040404195e-12
4.723288106065518 4.0418497009386924e-19 5.067503181127863e-11 4.6190474688587464e-11 4.484557122691162e-12
4.867139040275056 4.163906935551345e-19 5.379528347444911e-11 4.8919958207771936e-11 4.875325266677175e-12
4.940699165968905 4.2251254773219875e-19 5.5411187196745315e-11 5.0338596755846535e-11 5.07259044089878e-12
5.015371051989984 4.28419739384391e-19 5.7035069444381434e-11 5.176470181892346e-11 5.270367625457965e-12
5.091171501069577 4.345980337862883e-19 5.873201717435337e-11 5.325881526278079e-11 5.473201911572587e-12
5.129500256944802 4.375945661808433e-19 5.958218278312408e-11 5.400766199508317e-11 5.5745207880409075e-12
5.168117569889187 4.405758295698586e-19 6.043972582789114e-11 5.476283435555832e-11 5.676891472332824e-12
5.20702561229733 4.439074230924207e-19 6.135522518194433e-11 5.556572754539236e-11 5.789497636551981e-12
5.246226572918644 4.471849657000695e-19 6.227355660625608e-11 5.63712503606429e-11 5.902306245613168e-12
5.265937586045735 4.488032572005846e-19 6.273373435536231e-11 5.6774966962397054e-11 5.9587673929652455e-12
5.285722656980489 4.504077932945869e-19 6.319456101159673e-11 5.71793048296278e-11 6.015256181968936e-12
5.305582063971359 4.519985038391921e-19 6.365601782545326e-11 5.7584252949636516e-11 6.0717648758167584e-12
5.3255160863122235 4.536443584810257e-19 6.412784536385995e-11 5.7999043434077745e-11 6.128801929782211e-12
5.365609099470188 4.574272374304106e-19 6.514940953248199e-11 5.890252911789136e-11 6.246880414590634e-12
5.406003951863644 4.6117960334675965e-19 6.617834214884559e-11 5.9813220047865e-11 6.3651221009806136e-12
5.446702915881641 4.649027025809478e-19 6.721484349057728e-11 6.073137864569726e-11 6.4834648448800144e-12
5.487708281020852 4.687265866398863e-19 6.827788152756028e-11 6.167545702903332e-11 6.602424498526962e-12
5.529022354014368 4.736646210011704e-19 6.951663256816661e-11 6.279020136427239e-11 6.726431203894219e-12
5.570647458961463 4.786552523407946e-19 7.077794299771378e-11 6.3927371964926e-11 6.850571032787797e-12
5.612585937458331 4.837073602458623e-19 7.206346372858341e-11 6.50886828704355e-11 6.9747808581479164e-12
5.654840148729818 4.890218536293891e-19 7.340371381583456e-11 6.630401289350532e-11 7.099700922329251e-12
5.67608639626678 4.925549670517042e-19 7.421182867408192e-11 6.704662575853309e-11 7.165202915548838e-12
5.686739436050992 4.943456898611715e-19 7.462142092424505e-11 6.742345161338625e-11 7.197969310858791e-12
5.6974124697621304 4.961531843016622e-19 7.50348256602221e-11 6.780408102666463e-11 7.230744633557461e-12
5.718818669136295 4.99820549704971e-19 7.587345612316417e-11 6.857713809044881e-11 7.296318032715357e-12
5.740305295436557 5.037980578245475e-19 7.676458611962396e-11 6.940211949638195e-11 7.362466623242032e-12
5.7835210386641895 5.139514776413703e-19 7.890124785758836e-11 7.140215242181188e-11 7.499095435776472e-12
5.827062130521658 5.252196507033988e-19 8.123815438945707e-11 7.360089537943269e-11 7.637259010024392e-12
5.8489554468988025 5.33148950361107e-19 8.277445020466654e-11 7.506214192005918e-11 7.712308284607382e-12
5.870931020387893 5.414753762678185e-19 8.438303130150243e-11 7.659553502540705e-11 7.787496276095382e-12
5.892989160043636 5.502313623469294e-19 8.606972515779608e-11 7.820691040683282e-11 7.862814750963265e-12
5.915130176081913 5.600943280619375e-19 8.794171169630828e-11 8.000067753031546e-11 7.941034165992873e-12
5.95966208400165 5.8772551522459565e-19 9.297487735188035e-11 8.485311633845145e-11 8.121761013428924e-12
6.004529249263818 6.269902830233224e-19 9.993306508369882e-11 9.160651671993637e-11 8.326548363762474e-12
6.027089341400364 6.54189549272131e-19 1.0465998404648362e-10 9.621386864950206e-11 8.446115396981557e-12
6.049734195844842 6.859007031017582e-19 1.1014555479698093e-10 1.0157251379276222e-10 8.573041004218712e-12
6.095279466722835 7.771138418881968e-19 1.2573254326792816e-10 1.1684332613480772e-10 8.88921713312045e-12
6.141167624020661 9.155176311446862e-19 1.49240638055965e-10 1.3993587849838575e-10 9.30475955757927e-12
6.164241091010745 1.0035611916361653e-18 1.6420746921006963e-10 1.5463941723803354e-10 9.568051972036024e-12
6.187401249150058 1.1020690401687403e-18 1.8100330958585396e-10 1.7116538365552044e-10 9.837925930333576e-12
6.1990139391386085 1.1498125700281624e-18 1.8919911391002684e-10 1.792239564390116e-10 9.97515747101522e-12
6.204828454712694 1.1748128154992398e-18 1.9349417145616912e-10 1.8344975176754323e-10 1.0044419688625813e-11
6.210648424152782 1.1928243286484308e-18 1.9664498109901203e-10 1.8654209658474013e-10 1.010288451427191e-11
6.233982942956859 1.2528154981274427e-18 2.0731091093339944e-10 1.970065025074101e-10 1.0304408425989347e-11
6.239830258556775 1.2597890174206777e-18 2.0866039576336744e-10 1.9832977044208938e-10 1.0330625321278078e-11
6.245683058788269 1.259360583722575e-18 2.0878508528780662e-10 1.984282192988608e-10 1.0356865988945808e-11
6.257405133728602 1.2553185859120962e-18 2.085055723754065e-10 1.9810379615392194e-10 1.0401776221484542e-11
6.269149208991335 1.2404921454068477e-18 2.0642964142375744e-10 1.9601630422028093e-10 1.0413337203476443e-11
6.280915325867298 1.206912124032025e-18 2.012185530585673e-10 1.9083482598876917e-10 1.0383727069798113e-11
6.304513850009849 1.1255882559318757e-18 1.88365164558255e-10 1.7807780138466805e-10 1.0287363173586918e-11
6.32820103803542 1.027139931828296e-18 1.72535836659267e-10 1.6238434489020026e-10 1.0151491769066712e-11
6.3519772230701035 9.37532217940357e-19 1.5807550073498014e-10 1.480471923151887e-10 1.0028308419791462e-11
6.375842739491607 8.61831114141339e-19 1.4585764552030462e-10 1.3593944873506525e-10 9.918196785239385e-12
6.399797922933955 8.020143313126865e-19 1.3624413720609848e-10 1.2638935938054396e-10 9.854777825554511e-12
6.42384311029221 7.519731942716182e-19 1.2822323159392768e-10 1.184225076933397e-10 9.80072390058799e-12
6.447978639727206 7.156860821660396e-19 1.2249421948958615e-10 1.127112834587661e-10 9.782936030820012e-12
6.472204850670314 6.85259074661659e-19 1.1772711004422804e-10 1.0795479990489936e-10 9.772310139328688e-12
6.496522083828205 6.653848029625253e-19 1.1474221511320928e-10 1.0495127580518836e-10 9.790939308020896e-12
6.520930681187647 6.485016178643365e-19 1.1225096430050104e-10 1.0243708235368881e-10 9.813881946812202e-12
6.57002334288761 6.303763378936125e-19 1.0993506778650332e-10 1.0003523373232603e-10 9.8998340541773e-12
