Dust emission spectrum from A.P. Jones, M. Kohler, N. Ysard, M. Bocchio, and L. Verstraete (2017), A&A, 602A, 46J 
inside the DustPedia framework.

lambda    nu*dP/dnu     j_nu    j_nu(carb.) j_nu(sil)
 (um)   (erg s-1 H-1) (Jy cm2 sr-1 H-1)
0.9927057738263894 2.0523533148571375e-22 5.408067555989642e-15 5.408067490972783e-15 6.501685904045517e-23
1.0001793341362166 2.086901048450859e-22 5.540502652594646e-15 5.5405025743323266e-15 7.826231957080895e-23
1.0077091589558085 2.121555860383569e-22 5.674911721596411e-15 5.674911627514734e-15 9.408167499863954e-23
1.0114953028030835 2.138921337504656e-22 5.7428585081746925e-15 5.742858405073087e-15 1.0310160448322944e-22
1.0152956718711033 2.156311107826697e-22 5.8113012326155466e-15 5.811301119666699e-15 1.129488478475455e-22
1.0229392996569957 2.1911434277727355e-22 5.949631987024378e-15 5.949631851602764e-15 1.3542161305914031e-22
1.0267826658714554 2.2085460608570167e-22 6.019416890636775e-15 6.019416742422323e-15 1.4821445339614812e-22
1.0306404723013447 2.225968975871e-22 6.089697681980226e-15 6.089697519818224e-15 1.6216199995805735e-22
1.03451277320114 2.24341142531595e-22 6.16047525803956e-15 6.160475080676327e-15 1.7736323243478e-22
1.0383996230291617 2.2608726762650673e-22 6.231750541063942e-15 6.23175034713881e-15 1.939251309881848e-22
1.0403485208654093 2.2696101273468233e-22 6.2675751182046205e-15 6.267574915452524e-15 2.0275209688183507e-22
1.0423010764483396 2.2783520107624744e-22 6.3035244802166554e-15 6.303524268253375e-15 2.119632807477247e-22
1.0462171883269815 2.2958487262192236e-22 6.3757980532482424e-15 6.375797821645724e-15 2.3160251851496826e-22
1.0471985131304309 2.3002255400186526e-22 6.393944631738831e-15 6.393944394960765e-15 2.3677806366430455e-22
1.048180758391296 2.304603386546949e-22 6.412122516249442e-15 6.412122274185186e-15 2.420642558871599e-22
1.0501480137395462 2.313362135806148e-22 6.448572268192657e-15 6.448572015215034e-15 2.5297762435697687e-22
1.0521189612883777 2.322124890669555e-22 6.48514744009593e-15 6.4851471757347835e-15 2.6436114635263747e-22
1.0531058218030118 2.3265017990238015e-22 6.5034654803157195e-15 6.503465210080131e-15 2.7023558927332994e-22
1.0540936079674168 2.3308601994907645e-22 6.5217603934550266e-15 6.521760117218858e-15 2.762361674960639e-22
1.058054026499678 2.348302509379234e-22 6.5952508643563896e-15 6.595250562817839e-15 3.0153855038138795e-22
1.0590464539527713 2.352665214550906e-22 6.613701270580156e-15 6.613700962377759e-15 3.0820239410927435e-22
1.06003981227728 2.357028751318074e-22 6.632182826277681e-15 6.632182511270674e-15 3.1500700633683835e-22
1.0620293250338977 2.3657582812194227e-22 6.669239455432826e-15 6.669239126382932e-15 3.290498927114441e-22
1.0660195594769086 2.383226901446022e-22 6.743727278720337e-15 6.743726919767477e-15 3.5895285895607826e-22
1.070024785945596 2.40070777438037e-22 6.818715485872252e-15 6.8187150944279376e-15 3.9144431525095297e-22
1.0740450607676866 2.4182003225981883e-22 6.894205269990761e-15 6.894204843254404e-15 4.267363578313398e-22
1.07808044048254 2.435703987292982e-22 6.9701978674789164e-15 6.970197402421505e-15 4.650574099662409e-22
1.0861967418109137 2.470715108484224e-22 7.123617624815564e-15 7.123617073026535e-15 5.517890303701201e-22
1.0902777775684922 2.488159198086813e-22 7.200866465453615e-15 7.20086586470445e-15 6.007491625745181e-22
1.0943741465085532 2.505611274220312e-22 7.278618422048797e-15 7.278617768208922e-15 6.538398753392588e-22
1.1026131145906286 2.540537587225484e-22 7.43563754146774e-15 7.435636767713248e-15 7.7375449380565705e-22
1.1109141095355224 2.575490660576533e-22 7.594687264532464e-15 7.5946863500604e-15 9.14472063696401e-22
1.1192775983109025 2.6104393238116764e-22 7.755697252084186e-15 7.755696172701716e-15 1.0793824694726933e-21
1.1277040513999907 2.6452515938548963e-22 7.918292828498816e-15 7.918291556108818e-15 1.2723899978515756e-21
1.1361939428280308 2.680078382814915e-22 8.082940809507373e-15 8.082939311522284e-15 1.4979850886351698e-21
1.1447477501889525 2.7149177844710633e-22 8.249657419820567e-15 8.249655658495079e-15 1.7613254877606732e-21
1.1533659546722406 2.7497816909928022e-22 8.41850117137971e-15 8.418499103049374e-15 2.068330335365624e-21
1.1707974979042381 2.8196887586603063e-22 8.762991523492568e-15 8.762988682036711e-15 2.841455855700077e-21
1.1884924949847024 2.8896774959635546e-22 9.116229552436531e-15 9.116225668376513e-15 3.8840600185939145e-21
1.2064549276569216 2.960229629246406e-22 9.479947579431409e-15 9.479942296365388e-15 5.283066017529965e-21
1.2246888378427687 3.0308412987676957e-22 9.852771001530627e-15 9.852763850690895e-15 7.15083973065894e-21
1.2431983285522175 3.1014382176187347e-22 1.0234649749369964e-14 1.0234640117243389e-14 9.632126577721094e-21
1.2619875648066055 3.172103450070441e-22 1.0626049896235001e-14 1.0626036983803409e-14 1.2912431591972078e-20
1.3004222497298317 3.3130982060626174e-22 1.1436368321714634e-14 1.1436345442978492e-14 2.2878736137160473e-20
1.3400274889804893 3.454110448087594e-22 1.2286250362706173e-14 1.228621056720683e-14 3.979549934860058e-20
1.3808389325824078 3.5955210149058343e-22 1.317875207513399e-14 1.317868408953233e-14 6.798560166030539e-20
1.4228933163050095 3.7384528308177995e-22 1.4119966873416958e-14 1.4119852744542146e-14 1.1412887481244747e-19
1.466228494730424 3.885483381949861e-22 1.512224062371486e-14 1.5122052264629695e-14 1.8835908517019673e-19
1.5108834753276823 4.036073452513883e-22 1.6186742788434467e-14 1.618643702809841e-14 3.057603360557514e-19
1.5568984535646726 4.1898774000324353e-22 1.7315340474713416e-14 1.731485178200707e-14 4.88692706345386e-19
1.6043148490894465 4.347731323091632e-22 1.8514915503859565e-14 1.8514145028674813e-14 7.704751847547088e-19
1.6531753430134553 4.510514867765588e-22 1.9793129719683002e-14 1.979193287391448e-14 1.1968457685175636e-18
1.7035239163302658 4.679306744659582e-22 2.1159197087499626e-14 2.1157364872847518e-14 1.832214652107771e-18
1.755405889504358 4.857584294932943e-22 2.263431365990796e-14 2.2631548057854314e-14 2.7656020536458668e-18
1.8088679632656115 5.045071847003553e-22 2.422387716178315e-14 2.4219759685278233e-14 4.117476504924742e-18
1.8639582606462262 5.241406186209265e-22 2.5933040185730625e-14 2.592699134315169e-14 6.048842578924893e-18
1.9207263702978936 5.446964097179019e-22 2.7770867396842123e-14 2.7762095861821443e-14 8.771535020677935e-18
1.979223391128241 5.662422043280404e-22 2.974859669644825e-14 2.973603618096947e-14 1.2560515478788766e-17
2.039501978296691 5.888288507428435e-22 3.187738185793912e-14 3.1859614563790997e-14 1.7767294148132235e-17
2.1016163906111602 6.126903117019594e-22 3.4179357365999793e-14 3.415452060860016e-14 2.4836757399634957e-17
2.1656225393682647 6.379064690734238e-22 3.6669855811176124e-14 3.663553353370634e-14 3.4322277469773666e-17
2.231578038680979 6.643421575844254e-22 3.935259032946879e-14 3.930568756830996e-14 4.690276115883012e-17
2.299542257339062 6.91951934860246e-22 4.223638654499005e-14 4.217298600904132e-14 6.340053594872608e-17
2.369576372248914 7.207614517446924e-22 4.533479906058478e-14 4.524999860366357e-14 8.480045692121068e-17
2.4417434235010123 7.508121786124563e-22 4.866321169022331e-14 4.855094706259342e-14 1.122646276298832e-16
2.5161083711144245 7.822927195436379e-22 5.2247806719311314e-14 5.210065503417777e-14 1.4715168513353475e-16
2.5927381535095444 8.155963551652866e-22 5.613107605992914e-14 5.594004715250249e-14 1.9102890742665684e-16
2.6717017477616296 8.510816661071393e-22 6.035713861016563e-14 6.011146765271075e-14 2.456709574548818e-16
2.753070231689431 8.893473172689627e-22 6.499173380308554e-14 6.467866996389571e-14 3.1306383918981683e-16
2.836916847834745 9.321561715346806e-22 7.01947640884019e-14 6.97993483788357e-14 3.9541570956620106e-16
2.9233170693905177 9.83569188845986e-22 7.632209291201173e-14 7.582704173960449e-14 4.9505117240722e-16
2.967498994190263 1.0166178221328206e-21 8.007883243940702e-14 7.952774265300826e-14 5.510897863987345e-16
3.0123486681368425 1.0524154566193008e-21 8.415150535518249e-14 8.353884197858105e-14 6.1266337660144e-16
3.0578761833420214 1.1153057225322591e-21 9.052806966176195e-14 8.984764939113718e-14 6.804202706247618e-16
3.1040917844459814 1.1905593902243791e-21 9.809684779893694e-14 9.734266321260841e-14 7.541845863284989e-16
3.127460860933648 1.2630732911700614e-21 1.0485517468256164e-13 1.0406148307087264e-13 7.936916116889757e-16
3.1510058709225794 1.3564136967289211e-21 1.1345164880729323e-13 1.126167681015062e-13 8.348807057870168e-16
3.162844764501044 1.4417644450833974e-21 1.210435413299577e-13 1.2018734187810635e-13 8.561994518513654e-16
3.1747281389236908 1.5389973973214588e-21 1.296922007180758e-13 1.2881424675346888e-13 8.779539646069182e-16
3.1986289994194426 1.804412567502595e-21 1.5320366211826967e-13 1.5228075660796147e-13 9.22905510308171e-16
3.2227097969389145 2.4228178244245727e-21 2.072580426890344e-13 2.0628749585117852e-13 9.70546837855864e-16
3.2348180950136065 3.0049151404813543e-21 2.5801889370380664e-13 2.5702292046292537e-13 9.959732408812897e-16
3.240889293275058 3.439993391552324e-21 2.9593152855617527e-13 2.949221434873142e-13 1.0093850688610118e-15
3.2469718861334385 3.944126555265567e-21 3.39937286241214e-13 3.3891402379192263e-13 1.0232624492914482e-15
3.2714166318528037 6.600272288652222e-21 5.73148476995206e-13 5.720678585830473e-13 1.0806184121588288e-15
3.2744851364798273 6.766402923158826e-21 5.881259088423633e-13 5.870385287906519e-13 1.0873800517115291e-15
3.2775565192852394 6.937059593503793e-21 6.035246987807315e-13 6.024305230766695e-13 1.0941757040619503e-15
3.283707930232385 6.773472258082876e-21 5.903985895027493e-13 5.892922560633635e-13 1.1063334393855974e-15
3.2898708863219004 6.253118142991256e-21 5.460657290442802e-13 5.449483268549165e-13 1.1174021893636843e-15
3.29141343181113 6.130189463737846e-21 5.35581746928929e-13 5.344615652025603e-13 1.1201817263686315e-15
3.292184975758714 6.069754286249783e-21 5.304259613227639e-13 5.293043879731036e-13 1.1215733496603242e-15
3.295272960557952 5.691798423682589e-21 4.978635584208412e-13 4.967365710650464e-13 1.1269873557947784e-15
3.3076538914384823 4.3744785303958065e-21 3.840747722454269e-13 3.8292603736672305e-13 1.1487348787037469e-15
3.310756385682612 4.1041365463280775e-21 3.6067700933357223e-13 3.5952279235126294e-13 1.1542169823093264e-15
3.313861789986515 3.853830466613458e-21 3.3899744915781004e-13 3.378377319474682e-13 1.1597172103418514e-15
3.3200813396944477 3.503876147917574e-21 3.0879261369770516e-13 3.076210681790638e-13 1.1715455186414327e-15
3.345076488085796 2.8893619622009864e-21 2.565532005246704e-13 2.553289491125175e-13 1.224251412152925e-15
3.3482140837626964 2.913817100065582e-21 2.5896730640812036e-13 2.5773591541912743e-13 1.231390988992908e-15
3.3513546224236106 2.9385066600818033e-21 2.614065692721873e-13 2.6016800629173047e-13 1.2385629804567732e-15
3.3576445397418455 3.1136536535899764e-21 2.775073259318306e-13 2.762537688593833e-13 1.25355707244735e-15
3.3702598118196083 3.7509750816021604e-21 3.3556526037141896e-13 3.342802521545688e-13 1.2850082168502473e-15
3.382922481734668 3.9016078650184945e-21 3.503524003736226e-13 3.4903680937050627e-13 1.3155910031163242e-15
3.389271646505754 3.979361091493546e-21 3.580050565794434e-13 3.5667396178339365e-13 1.33109479604972e-15
3.395632727569191 4.0645344100496224e-21 3.6635400900639717e-13 3.6500693653638485e-13 1.3470724700122468e-15
3.421196662673239 4.477047401641418e-21 4.0657359075724667e-13 4.05160364138723e-13 1.4132266185235525e-15
3.4276182099114902 4.400886966802965e-21 4.0040739404706055e-13 3.98979389999083e-13 1.4280040479776024e-15
3.4340518103208963 4.05735731301429e-21 3.6984481280106337e-13 3.6840282506988004e-13 1.4419877311833927e-15
3.4469541582030403 3.565144094146699e-21 3.2619855161081987e-13 3.2472971015392035e-13 1.4688414568995309e-15
3.472904465399547 3.428314526908613e-21 3.1604063713081744e-13 3.1450995709877896e-13 1.5306800320384588e-15
3.4990501388274233 3.220698676282766e-21 2.9913669666808195e-13 2.9754270556897606e-13 1.5939910991058716e-15
3.5253949054701885 2.4833707591047083e-21 2.323907131893114e-13 2.307351661568434e-13 1.6555470324680847e-15
3.5519380250092896 1.7828120778964236e-21 1.6808942059207893e-13 1.663719645188304e-13 1.717456073248534e-15
3.578680990867387 1.5082856118118408e-21 1.4327684433436387e-13 1.4149152863751686e-13 1.7853156968470255e-15
3.605625307711299 1.4013144959551964e-21 1.341175591698564e-13 1.3226075148160734e-13 1.8568076882490565e-15
3.660119384959845 1.3310981159259591e-21 1.2932269698755e-13 1.2731558935174986e-13 2.007107635800156e-15
3.715437065384467 1.2828769988878379e-21 1.2652150840207718e-13 1.2435581093424365e-13 2.1656974678335475e-15
3.8285932144167436 1.273402762204236e-21 1.2941196926244718e-13 1.2690492813431556e-13 2.507041128131624e-15
3.94519561050918 1.2856683380710442e-21 1.34637774096807e-13 1.3175777664060368e-13 2.879997456203316e-15
4.06534921144712 1.3054928796865832e-21 1.40877552438377e-13 1.3759325911288226e-13 3.284293325494708e-15
4.189162171576248 1.3287177383092574e-21 1.477506292201339e-13 1.4402980829986648e-13 3.720820920267442e-15
4.316745939156006 1.35366545879027e-21 1.551090969694856e-13 1.5092098613826406e-13 4.188110831221589e-15
4.448215356677963 1.379674349672482e-21 1.6290403002174627e-13 1.5822417118180224e-13 4.679858839944035e-15
4.58368876423945 1.406696864944648e-21 1.7115321980034795e-13 1.65956453093639e-13 5.196766706708889e-15
4.723288106065518 1.4351264479040843e-21 1.799301898431722e-13 1.741880444191276e-13 5.7421454240446016e-15
4.867139040275056 1.4656538697420902e-21 1.8935405286083592e-13 1.8305221742616532e-13 6.301835434670574e-15
4.940699165968905 1.4829289667114645e-21 1.9448145389993823e-13 1.878927035596991e-13 6.588750340239121e-15
5.015371051989984 1.4999121496623663e-21 1.9968172740917674e-13 1.9280221352442756e-13 6.879513884749163e-15
5.091171501069577 1.5203520826480718e-21 2.054619158103694e-13 1.9828158319727386e-13 7.180332613095614e-15
5.129500256944802 1.530456166892039e-21 2.083844867480278e-13 2.0105258323318222e-13 7.331903514845575e-15
5.168117569889187 1.5408129819382693e-21 2.113740880232243e-13 2.0388840570522333e-13 7.485682318001005e-15
5.20702561229733 1.5539421034096966e-21 2.1478007060619944e-13 2.0712667429811122e-13 7.653396308088254e-15
5.246226572918644 1.567109402281849e-21 2.1823067311401718e-13 2.104083435690042e-13 7.822329545012962e-15
5.265937586045735 1.5737094257226566e-21 2.1997315634830984e-13 2.1206592319588957e-13 7.907233152420292e-15
5.285722656980489 1.5803215161179422e-21 2.2172734565215744e-13 2.1373492853214455e-13 7.992417120012839e-15
5.305582063971359 1.5869465710308055e-21 2.2349343715862917e-13 2.1541556404233946e-13 8.077873116289692e-15
5.3255160863122235 1.5941225140268007e-21 2.2534754408245147e-13 2.1718328235935226e-13 8.164261723099186e-15
5.365609099470188 1.6127005755834128e-21 2.296900614011582e-13 2.2134706547050896e-13 8.34299593064925e-15
5.406003951863644 1.6316103363018862e-21 2.341327897109782e-13 2.256098042487691e-13 8.522985462209115e-15
5.446702915881641 1.6508766935858695e-21 2.3868094972473353e-13 2.2997678561615715e-13 8.704164108576365e-15
5.487708281020852 1.671559690899554e-21 2.434906783496993e-13 2.3460344773628414e-13 8.88723061341523e-15
5.529022354014368 1.701898617106085e-21 2.4977643587474573e-13 2.4069834745510077e-13 9.078088419644928e-15
5.570647458961463 1.7334515222698826e-21 2.5632254620109046e-13 2.470522841439148e-13 9.2702620571756e-15
5.612585937458331 1.766318782641706e-21 2.6314887882069404e-13 2.536851945166633e-13 9.463684304030764e-15
5.654840148729818 1.802181386279302e-21 2.705130777712134e-13 2.6085384349031284e-13 9.659234280900612e-15
5.67608639626678 1.8276798363291303e-21 2.753712214021662e-13 2.6560966474401183e-13 9.761556658154329e-15
5.686739436050992 1.84073597081966e-21 2.778588678046478e-13 2.6804601255056467e-13 9.812855254083141e-15
5.6974124697621304 1.854003508714741e-21 2.803868531966703e-13 2.7052260914330293e-13 9.864244053367339e-15
5.718818669136295 1.8811939685132094e-21 2.8556786653409683e-13 2.7560057850924386e-13 9.96728802485301e-15
5.740305295436557 1.911266303115953e-21 2.912229700857158e-13 2.8115152126952443e-13 1.0071448816191362e-14
5.7835210386641895 1.990870810909272e-21 3.056362285888799e-13 2.953494408189014e-13 1.0286787769978463e-14
5.827062130521658 2.0815173763609865e-21 3.219579270476392e-13 3.114523330393518e-13 1.0505594008287308e-14
5.8489554468988025 2.1468284128599983e-21 3.333074958468616e-13 3.226836988490536e-13 1.0623796997807903e-14
5.870931020387893 2.216191789946983e-21 3.4536931756751334e-13 3.346267549937166e-13 1.07425625737968e-14
5.892989160043636 2.289926985008971e-21 3.582009309510648e-13 3.473390479554595e-13 1.086188299560536e-14
5.915130176081913 2.373750431039763e-21 3.7270807002780753e-13 3.6172248401932816e-13 1.0985586008479364e-14
5.95966208400165 2.6112148671891036e-21 4.1307953411472626e-13 4.0181170343458457e-13 1.1267830680141712e-14
6.004529249263818 2.95357858157519e-21 4.707571530440977e-13 4.591714947469469e-13 1.15856582971509e-14
6.027089341400364 3.19244024308545e-21 5.107399610440542e-13 4.989704747028891e-13 1.1769486341165107e-14
6.049734195844842 3.4729444979151336e-21 5.577037562027893e-13 5.457395034283059e-13 1.1964252774483473e-14
6.095279466722835 4.284370154298019e-21 6.931864120348486e-13 6.807427663006603e-13 1.2443645734188225e-14
6.141167624020661 5.526653987354019e-21 9.009125977792418e-13 8.878459461368876e-13 1.3066651642354523e-14
6.164241091010745 6.3195463916571466e-21 1.0340343251394533e-12 1.0205762605613687e-12 1.3458064578084502e-14
6.187401249150058 7.214126091383454e-21 1.1848447336022932e-12 1.1709847671231567e-12 1.3859966479136669e-14
6.1990139391386085 7.649348922659418e-21 1.2586834375278513e-12 1.2446189746123274e-12 1.4064462915523746e-14
6.204828454712694 7.877875073092843e-21 1.2975027936306112e-12 1.283335043791786e-12 1.4167749838825068e-14
6.210648424152782 8.043523664701066e-21 1.326028083956684e-12 1.3117724228257573e-12 1.4255661130926922e-14
6.233982942956859 8.600421024820874e-21 1.4231633626270836e-12 1.4086015771084135e-12 1.456178551867006e-14
6.239830258556775 8.668236737167731e-21 1.4357306526224462e-12 1.4211266698844262e-12 1.4603982738019897e-14
6.245683058788269 8.66867448522396e-21 1.437149903786745e-12 1.4225036572732143e-12 1.4646246513530896e-14
6.257405133728602 8.640879785131733e-21 1.435230550750512e-12 1.4205104930257921e-12 1.4720057724719662e-14
6.269149208991335 8.515704709443459e-21 1.417093914016258e-12 1.4023475282582781e-12 1.4746385757980088e-14
6.280915325867298 8.220256502753697e-21 1.3704959013324877e-12 1.3557818991199521e-12 1.4714002212535883e-14
6.304513850009849 7.499330303213301e-21 1.2549994007106785e-12 1.240403282809905e-12 1.4596117900773255e-14
6.32820103803542 6.6169826911678664e-21 1.111500594420844e-12 1.0970788758049446e-12 1.4421718615899185e-14
6.3519772230701035 5.810719394865266e-21 9.797342004861343e-13 9.654688961722364e-13 1.426530431389802e-14
6.375842739491607 5.130878980871368e-21 8.683579825789222e-13 8.542306503024934e-13 1.4127332276428714e-14
6.399797922933955 4.5892040008328706e-21 7.796022030340484e-13 7.655458082991389e-13 1.4056394734909608e-14
6.42384311029221 4.1370931705811236e-21 7.054393158933133e-13 6.914405040468438e-13 1.3998811846469669e-14
6.447978639727206 3.807736753885846e-21 6.517183347724319e-13 6.377248247277386e-13 1.3993510044693336e-14
6.472204850670314 3.532082998824903e-21 6.068098026915077e-13 5.928112208795499e-13 1.3998581811957743e-14
6.496522083828205 3.351528076389827e-21 5.779539204786145e-13 5.639078996904568e-13 1.4046020788157865e-14
