Dust emission spectrum from A.P. Jones, M. Kohler, N. Ysard, M. Bocchio, and L. Verstraete (2017), A&A, 602A, 46J 
inside the DustPedia framework.

lambda    nu*dP/dnu     j_nu    j_nu(carb.) j_nu(sil)
 (um)   (erg s-1 H-1) (Jy cm2 sr-1 H-1)
0.9927057738263894 1.4839079647232755e-20 3.9101817713355996e-13 3.910181693526762e-13 7.780883862601927e-21
1.0001793341362166 1.508834905870551e-20 4.005797881269324e-13 4.00579778764161e-13 9.362771322264807e-21
1.0077091589558085 1.5338644440784513e-20 4.102906492156666e-13 4.102906379644492e-13 1.1251217465312714e-20
1.0114953028030835 1.546416604134544e-20 4.1520235440717093e-13 4.1520234207955336e-13 1.2327617461153792e-20
1.0152956718711033 1.558993133875169e-20 4.201517437648e-13 4.201517302623243e-13 1.350247559204965e-20
1.0229392996569957 1.5842054184152885e-20 4.301607604483361e-13 4.301607442656211e-13 1.6182715049580552e-20
1.0267826658714554 1.5968125633054733e-20 4.352130428745562e-13 4.352130251666143e-13 1.770794205933264e-20
1.0306404723013447 1.609441883999594e-20 4.403032843905279e-13 4.403032650200865e-13 1.9370441520614348e-20
1.03451277320114 1.6220930193954805e-20 4.454316225485569e-13 4.454316013666179e-13 2.1181938796214854e-20
1.0383996230291617 1.634765620459238e-20 4.505981980656747e-13 4.505981749105716e-13 2.3155102979705726e-20
1.0403485208654093 1.6411098649161448e-20 4.531958697070436e-13 4.5319584550049896e-13 2.4206544663162355e-20
1.0423010764483396 1.6474593505206732e-20 4.558031549608313e-13 4.558031296572136e-13 2.5303617834764927e-20
1.0462171883269815 1.6601738855663072e-20 4.610466406938917e-13 4.610466130516342e-13 2.764225765642171e-20
1.0471985131304309 1.6633557333648054e-20 4.623635498775334e-13 4.62363521619067e-13 2.8258466343035757e-20
1.048180758391296 1.6665388572363335e-20 4.636828789313251e-13 4.636828500435158e-13 2.888780943308838e-20
1.0501480137395462 1.6729089145297874e-20 4.663288063064006e-13 4.663287761194322e-13 3.018696836419403e-20
1.0521189612883777 1.679284020633556e-20 4.689844422823271e-13 4.689844107404021e-13 3.1541924971358006e-20
1.0531058218030118 1.6824692495527508e-20 4.703147313597701e-13 4.703146991186881e-13 3.224108198384378e-20
1.0540936079674168 1.6856419474752863e-20 4.716435972004024e-13 4.716435642451947e-13 3.295520774304007e-20
1.058054026499678 1.6983445855108984e-20 4.769832059893636e-13 4.769831700234155e-13 3.596594791774359e-20
1.0590464539527713 1.7015231857810547e-20 4.783241570505338e-13 4.783241202917776e-13 3.67587560513334e-20
1.06003981227728 1.704702954218986e-20 4.796675327169266e-13 4.796674951486668e-13 3.7568259782281125e-20
1.0620293250338977 1.7110659797705428e-20 4.823615681164393e-13 4.823615288777436e-13 3.923869591780076e-20
1.0660195594769086 1.7238058779389938e-20 4.877788478815115e-13 4.877788050864766e-13 4.27950349199467e-20
1.070024785945596 1.7365640421971487e-20 4.93235213927478e-13 4.932351672692593e-13 4.665821843520646e-20
1.0740450607676866 1.749340249491564e-20 4.987308393910777e-13 4.98730788537787e-13 5.08532905960269e-20
1.07808044048254 1.7621342918001723e-20 5.042659020551835e-13 5.042658466479694e-13 5.540721440000265e-20
1.0861967418109137 1.7877556122225962e-20 5.154494479901769e-13 5.154493822802773e-13 6.570989950333633e-20
1.0902777775684922 1.800538186322706e-20 5.210854295669337e-13 5.210853580434586e-13 7.152347501109508e-20
1.0943741465085532 1.8133371558622447e-20 5.267612483964259e-13 5.267611705706087e-13 7.782581720042254e-20
1.1026131145906286 1.8389837965482236e-20 5.382332079840712e-13 5.38233115929208e-13 9.205486321885717e-20
1.1109141095355224 1.864694732861844e-20 5.498670042444048e-13 5.498668955012016e-13 1.0874320331114035e-19
1.1192775983109025 1.890449386596242e-20 5.616584526247525e-13 5.61658324334945e-13 1.282898075241851e-19
1.1277040513999907 1.916155351572408e-20 5.735817044356995e-13 5.735815532818391e-13 1.5115386038615983e-19
1.1361939428280308 1.941921903496341e-20 5.856709230332538e-13 5.856707451701291e-13 1.7786312450231474e-19
1.1447477501889525 1.9677494049781973e-20 5.979281793348507e-13 5.979279703114977e-13 2.090233528190533e-19
1.1533659546722406 1.993647583010119e-20 6.103584356483717e-13 6.103581903191508e-13 2.453292208827496e-19
1.1707974979042381 2.0457342971648384e-20 6.357706058980383e-13 6.357702692227439e-13 3.3667529447623943e-19
1.1884924949847024 2.098114914650025e-20 6.619042165105903e-13 6.619037567963289e-13 4.597142613980089e-19
1.2064549276569216 2.1511419043771504e-20 6.888895472141148e-13 6.888889226010712e-13 6.246130435379073e-19
1.2246888378427687 2.2044771864877962e-20 7.166395979028649e-13 7.166387534082987e-13 8.444945661333368e-19
1.2431983285522175 2.258078795598641e-20 7.45158986180788e-13 7.451578499436536e-13 1.1362371344314667e-18
1.2619875648066055 2.312026636336368e-20 7.744927233879796e-13 7.744912019492392e-13 1.5214387403873297e-18
1.3004222497298317 2.4206376838991982e-20 8.35571492442813e-13 8.355688030342342e-13 2.689408578752718e-18
1.3400274889804893 2.5306397341431638e-20 9.00147051427078e-13 9.001423847160577e-13 4.666711020265495e-18
1.3808389325824078 2.6424306087700176e-20 9.685366244379317e-13 9.685286716117046e-13 7.95282622731491e-18
1.4228933163050095 2.756923318512939e-20 1.0412774399359715e-12 1.04126412300366e-12 1.3316932311919882e-17
1.466228494730424 2.876052248998477e-20 1.1193550423552549e-12 1.1193331205344564e-12 2.1921820798022843e-17
1.5108834753276823 2.999537512081352e-20 1.202969736888218e-12 1.202934244892262e-12 3.5491995956886685e-17
1.5568984535646726 3.127205242252323e-20 1.2923677314159226e-12 1.2923111563596178e-12 5.657505630415353e-17
1.6043148490894465 3.259690233917692e-20 1.3881467083579099e-12 1.3880577525225488e-12 8.895583536107237e-17
1.6531753430134553 3.397633784233538e-20 1.4909563143647495e-12 1.4908185105281008e-12 1.378038366487649e-16
1.7035239163302658 3.541762037066387e-20 1.6015372590147164e-12 1.6013268876582379e-12 2.103713564785211e-16
1.755405889504358 3.694474652221447e-20 1.721470858965587e-12 1.7211542182903364e-12 3.1664067525086426e-16
1.8088679632656115 3.8554567082090904e-20 1.8511948399248253e-12 1.8507247789475433e-12 4.700609772819038e-16
1.8639582606462262 4.0242491407803994e-20 1.9910880969277994e-12 1.9903995707461197e-12 6.885261816795828e-16
1.9207263702978936 4.200880043121602e-20 2.1417817438523173e-12 2.1407862757048557e-12 9.954681474615055e-16
1.979223391128241 4.3855423851411205e-20 2.304026981979632e-12 2.3026058289754906e-12 1.4211530041417835e-15
2.039501978296691 4.5782344094922677e-20 2.478515214097042e-12 2.476511140947811e-12 2.0040731492316697e-15
2.1016163906111602 4.78024539893248e-20 2.6666933141708924e-12 2.6639006247780986e-12 2.7926893927934272e-15
2.1656225393682647 4.9917010862886157e-20 2.869463909851432e-12 2.8656169734540563e-12 3.846936397375697e-15
2.231578038680979 5.2110993192183996e-20 3.0868168508381135e-12 3.0815769466674126e-12 5.239904170699887e-15
2.299542257339062 5.437601048618038e-20 3.319083424678338e-12 3.312023861606408e-12 7.059563071930021e-15
2.369576372248914 5.670800126103072e-20 3.5668470283381065e-12 3.5574364586774023e-12 9.410569660704111e-15
2.4417434235010123 5.910390391876077e-20 3.8307660291720744e-12 3.818350500186566e-12 1.2415528985508184e-14
2.5161083711144245 6.157059102344879e-20 4.112179826067614e-12 4.095963120516913e-12 1.6216705550701263e-14
2.5927381535095444 6.412819974335783e-20 4.413439116769059e-12 4.392462243956564e-12 2.0976872812494753e-14
2.6717017477616296 6.679182919073923e-20 4.736753067342498e-12 4.709874402495419e-12 2.687866484707911e-14
2.753070231689431 6.959044428765703e-20 5.085531313312593e-12 5.051406873737122e-12 3.412443957547084e-14
2.836916847834745 7.262635563152435e-20 5.469029821217637e-12 5.426092941964796e-12 4.293687925284037e-14
2.9233170693905177 7.614063396846194e-20 5.908290546330228e-12 5.8547442907376085e-12 5.354625559261831e-14
2.967498994190263 7.832225917920933e-20 6.169432536535133e-12 6.109950777816869e-12 5.948175871826457e-14
3.0123486681368425 8.065328489001007e-20 6.449064666094026e-12 6.38307503758982e-12 6.598962850420556e-14
3.0578761833420214 8.463343895563776e-20 6.869597907284876e-12 6.796460855969798e-12 7.313705131507993e-14
3.1040917844459814 8.931959329353479e-20 7.359540918935178e-12 7.278643820348359e-12 8.089709858681724e-14
3.127460860933648 9.378332272264677e-20 7.785507583083051e-12 7.700462642126385e-12 8.50449409566654e-14
3.1510058709225794 9.948684864818308e-20 8.321168564573773e-12 8.231805235773951e-12 8.936332879982284e-14
3.162844764501044 1.0470559858656154e-19 8.790573587252884e-12 8.698977458590296e-12 9.159612866259077e-14
3.1747281389236908 1.1061579164322614e-19 9.321656734020851e-12 9.227783792956323e-12 9.387294106452557e-14
3.1986289994194426 1.2665957354114625e-19 1.0754032009264416e-11 1.0655459435394404e-11 9.857257387001247e-14
3.2227097969389145 1.6399875208941596e-19 1.402914408951457e-11 1.3925596850187449e-11 1.0354723932712123e-13
3.2348180950136065 1.9908785876886285e-19 1.7094801905511726e-11 1.698860120972711e-11 1.0620069578461532e-13
3.240889293275058 2.253193151909363e-19 1.9383493445490296e-11 1.9275893113285656e-11 1.076003322046402e-13
3.2469718861334385 2.557277068944977e-19 2.2040718389816185e-11 2.193166985160927e-11 1.0904853820691324e-13
3.2714166318528037 4.1523585472982666e-19 3.6057875694216374e-11 3.594284670935348e-11 1.150289848628998e-13
3.2744851364798273 4.251894322698806e-19 3.69568475486458e-11 3.6841114982497714e-11 1.1573256614808975e-13
3.2775565192852394 4.35408784593994e-19 3.788059653035918e-11 3.776415697610517e-11 1.1643955425401394e-13
3.283707930232385 4.2551507428467475e-19 3.708932289049256e-11 3.6971621442429404e-11 1.1770144806314738e-13
3.2898708863219004 3.941816570831976e-19 3.442268145729479e-11 3.430383384824106e-11 1.1884760905373043e-13
3.29141343181113 3.8677554415779544e-19 3.3791764974766505e-11 3.3672629615486635e-11 1.1913535927986866e-13
3.292184975758714 3.8313390840830203e-19 3.348144951158874e-11 3.336217009553316e-11 1.192794160555803e-13
3.295272960557952 3.604495853537107e-19 3.152864873935716e-11 3.140880939154678e-11 1.198393478103791e-13
3.3076538914384823 2.8124166720721757e-19 2.4692732751568147e-11 2.4570645561614134e-11 1.2208718995400878e-13
3.310756385682612 2.649441558256533e-19 2.3283646799982882e-11 2.3160993251746954e-11 1.2265354823593391e-13
3.313861789986515 2.498379985606125e-19 2.197669174824009e-11 2.1853470080716592e-11 1.2322166752349657e-13
3.3200813396944477 2.2872953875570964e-19 2.0157673707794445e-11 2.0033229030855414e-11 1.244446769390241e-13
3.345076488085796 1.9178340659193047e-19 1.7028896833404553e-11 1.6898999143258068e-11 1.2989769014648358e-13
3.3482140837626964 1.932554569576209e-19 1.7175698891965153e-11 1.7045062386586134e-11 1.3063650537901235e-13
3.3513546224236106 1.9474086266088228e-19 1.7323949438954232e-11 1.7192570910463856e-11 1.313785284903792e-13
3.3576445397418455 2.0527548039013756e-19 1.829537128407299e-11 1.8162440961005396e-11 1.3293032306759464e-13
3.3702598118196083 2.4349168773238363e-19 2.178296304684961e-11 2.1646777971579905e-11 1.3618507526970582e-13
3.382922481734668 2.525511323588714e-19 2.2678315838023777e-11 2.253897082015418e-11 1.3934501786960236e-13
3.389271646505754 2.57221066825945e-19 2.3141011952721555e-11 2.300006597898849e-11 1.4094597373307254e-13
3.395632727569191 2.623653820140704e-19 2.3648122965251528e-11 2.3505527108756406e-11 1.4259585649512864e-13
3.421196662673239 2.8736186203208264e-19 2.6096159725768727e-11 2.594673803873475e-11 1.4942168703397536e-13
3.4276182099114902 2.827754298667973e-19 2.5727853004994235e-11 2.557691198186178e-11 1.5094102313245862e-13
3.4340518103208963 2.6210752650251255e-19 2.389217946423692e-11 2.373980334064156e-11 1.523761235953543e-13
3.4469541582030403 2.3242174448491995e-19 2.1265798635829638e-11 2.1110671925895276e-11 1.5512670993436207e-13
3.472904465399547 2.2402895380523857e-19 2.065220467393989e-11 2.0490735894220664e-11 1.6146877971922354e-13
3.4990501388274233 2.1143879063736384e-19 1.9638316941762272e-11 1.947036700352135e-11 1.6794993824092017e-13
3.5253949054701885 1.6728402797323677e-19 1.5654229004410247e-11 1.5479996743331587e-11 1.7423226107865728e-13
3.5519380250092896 1.2524245763569163e-19 1.180827323222479e-11 1.162773803122724e-11 1.8053520099754896e-13
3.578680990867387 1.0877400026170952e-19 1.0332788021760443e-11 1.0145346112767428e-11 1.8744190899301507e-13
3.605625307711299 1.0236918123045796e-19 9.797589877557841e-12 9.60288082249264e-12 1.9470905506519824e-13
3.660119384959845 9.816670248115192e-20 9.53737562043333e-12 9.327430608596365e-12 2.0994501183696552e-13
3.715437065384467 9.524591160054119e-20 9.393462050748766e-12 9.167501725947759e-12 2.2596032480100863e-13
3.8285932144167436 9.457622126776349e-20 9.61148774208423e-12 9.351269457403357e-12 2.602182846808734e-13
3.94519561050918 9.513532875477544e-20 9.962762963213865e-12 9.665432731998051e-12 2.9733023121581174e-13
4.06534921144712 9.607390842495701e-20 1.0367469085963955e-11 1.0030275768982805e-11 3.3719331698114984e-13
4.189162171576248 9.714416323186296e-20 1.080222746242173e-11 1.0422406293441929e-11 3.798211689798012e-13
4.316745939156006 9.824441936749957e-20 1.1257288919821137e-11 1.083230483882384e-11 4.2498408099729537e-13
4.448215356677963 9.933252896276671e-20 1.172861500551044e-11 1.1256641444897627e-11 4.719735606128131e-13
4.58368876423945 1.0040471994352661e-19 1.221627169984699e-11 1.1695490762879472e-11 5.207809369675209e-13
4.723288106065518 1.0148310474857199e-19 1.2723529923061853e-11 1.2151880562501922e-11 5.716493605599334e-13
4.867139040275056 1.0259988582168106e-19 1.3255315326812458e-11 1.2632218846608124e-11 6.230964802043329e-13
4.940699165968905 1.0324243647724749e-19 1.3539919713614882e-11 1.2890738670583398e-11 6.491810430314875e-13
5.015371051989984 1.038453173519485e-19 1.3824817911408315e-11 1.3149405052448119e-11 6.754128589601999e-13
5.091171501069577 1.0462452043329115e-19 1.4139063348750038e-11 1.3436682083215229e-11 7.023812655348098e-13
5.129500256944802 1.0499779299752475e-19 1.4296333130466134e-11 1.358044761985528e-11 7.158855106108516e-13
5.168117569889187 1.053794895122429e-19 1.445632516931615e-11 1.372677971393697e-11 7.29545455379181e-13
5.20702561229733 1.0591608718899355e-19 1.4639325773379043e-11 1.3894795021283143e-11 7.445307520958964e-13
5.246226572918644 1.0644719417514498e-19 1.4823497837557095e-11 1.4063931868427942e-11 7.595659691291547e-13
5.265937586045735 1.0671079882401151e-19 1.4916039041316754e-11 1.414893910306051e-11 7.670999382562463e-13
5.285722656980489 1.0697316596261157e-19 1.5008892749345694e-11 1.423424920604554e-11 7.746435433001547e-13
5.305582063971359 1.0723434376883728e-19 1.51020661362154e-11 1.4319870312834681e-11 7.821958233807144e-13
5.3255160863122235 1.0752487079395523e-19 1.519987663933925e-11 1.441005480525129e-11 7.898218340879619e-13
5.365609099470188 1.0833870945355245e-19 1.543022009371238e-11 1.4624615053514885e-11 8.056050401974951e-13
5.406003951863644 1.0916106731057646e-19 1.5664392807894224e-11 1.4842957858417826e-11 8.214349494763961e-13
5.446702915881641 1.0999319514755407e-19 1.5902629422947025e-11 1.5065325572402433e-11 8.373038505445941e-13
5.487708281020852 1.1089429514139006e-19 1.6153612279653488e-11 1.530033390161049e-11 8.53278378043003e-13
5.529022354014368 1.1232266351486153e-19 1.6484856547099282e-11 1.5614927227267426e-11 8.699293198318548e-13
5.570647458961463 1.138028128184564e-19 1.6827829547996615e-11 1.5941204388178357e-11 8.866251598182551e-13
5.612585937458331 1.1533973002984853e-19 1.7183489718340905e-11 1.628013167102871e-11 9.033580473121949e-13
5.654840148729818 1.1702560480554227e-19 1.7565910276846434e-11 1.664569926553465e-11 9.20211011311779e-13
5.67608639626678 1.1827864337353344e-19 1.7820700236524247e-11 1.6891658727944284e-11 9.2904150857996e-13
5.686739436050992 1.1891966931733684e-19 1.795090941885853e-11 1.701744786305256e-11 9.334615558059761e-13
5.6974124697621304 1.1957070544909456e-19 1.8083058461210243e-11 1.7145173825296705e-11 9.378846359135357e-13
5.718818669136295 1.2090386424172693e-19 1.8353375114489474e-11 1.740663572045961e-11 9.46739394029865e-13
5.740305295436557 1.2238842567340283e-19 1.8648537239742714e-11 1.7692860489416214e-11 9.556767503265014e-13
5.7835210386641895 1.2639751367715126e-19 1.940440292338807e-11 1.843026282920411e-11 9.74140094183969e-13
5.827062130521658 1.3096850452685836e-19 2.0257504791871594e-11 1.9264669480109864e-11 9.928353117617302e-13
5.8489554468988025 1.3432438494489474e-19 2.0854635661127906e-11 1.9851662750953355e-11 1.002972910174559e-12
5.870931020387893 1.378832780001398e-19 2.1487604927919722e-11 2.0474467541496923e-11 1.0131373864228e-12
5.892989160043636 1.4166129548003566e-19 2.2159312612530243e-11 2.1135984876913263e-11 1.023327735616985e-12
5.915130176081913 1.459670911064831e-19 2.2918632094798826e-11 2.188472757365501e-11 1.0339045211438163e-12
5.95966208400165 1.5827826235838756e-19 2.5038732620985895e-11 2.3980482815108142e-11 1.0582498058777576e-12
6.004529249263818 1.7609791167059833e-19 2.806742711103029e-11 2.6981643868667742e-11 1.085783242362542e-12
6.027089341400364 1.8856992486624654e-19 3.016820637093099e-11 2.9066392252505145e-11 1.101814118425849e-12
6.049734195844842 2.0320606380371536e-19 3.2631902160990157e-11 3.1513080709169246e-11 1.118821451820906e-12
6.095279466722835 2.4560561387962096e-19 3.97375735824408e-11 3.857653331272144e-11 1.1610402697193683e-12
6.141167624020661 3.1045866833204553e-19 5.060858270304282e-11 4.93922348108592e-11 1.2163478921836198e-12
6.164241091010745 3.5179862083461367e-19 5.756296843709377e-11 5.631166131193667e-11 1.2513071251570995e-12
6.187401249150058 3.983147031620057e-19 6.541902267574019e-11 6.41318658774139e-11 1.2871567983263096e-12
6.1990139391386085 4.208855730932874e-19 6.925578964997174e-11 6.795040040933642e-11 1.3053892406353188e-12
6.204828454712694 4.32727000364962e-19 7.127105807638842e-11 6.995646494744679e-11 1.3145931289416242e-12
6.210648424152782 4.41260346985185e-19 7.274468713340602e-11 7.142230704813702e-11 1.3223800852690005e-12
6.233982942956859 4.697733881888751e-19 7.773622627056476e-11 7.638692903426121e-11 1.3492972363035468e-12
6.239830258556775 4.731393921209927e-19 7.836665619878023e-11 7.701379876620493e-11 1.352857432575318e-12
6.245683058788269 4.729770390407551e-19 7.841324614384797e-11 7.705682463829528e-11 1.3564215055526658e-12
6.257405133728602 4.71150285609411e-19 7.825699474085979e-11 7.6894437122184e-11 1.3625576186757864e-12
6.269149208991335 4.642290549132223e-19 7.725211134875536e-11 7.5887793765367e-11 1.3643175833883663e-12
6.280915325867298 4.484173482380802e-19 7.476094421637607e-11 7.340027140743233e-11 1.3606728089437592e-12
6.304513850009849 4.1007438881731767e-19 6.86252093726313e-11 6.727670614999844e-11 1.3485032226328686e-12
6.32820103803542 3.634543891933402e-19 6.10519610656503e-11 5.972081858968074e-11 1.3311424759695467e-12
6.3519772230701035 3.20940528581958e-19 5.411316410351852e-11 5.279772015989574e-11 1.3154439436227733e-12
6.375842739491607 2.8510193250898606e-19 4.8251096910652656e-11 4.6949641124397756e-11 1.3014557862548847e-12
6.399797922933955 2.565750198884968e-19 4.358630618997874e-11 4.2292698982229276e-11 1.2936072077494557e-12
6.42384311029221 2.3275682755189004e-19 3.968869213903617e-11 3.8401704919586716e-11 1.286987219449459e-12
6.447978639727206 2.1537410178048536e-19 3.686264572314345e-11 3.5577504869321344e-11 1.2851408538221007e-12
6.472204850670314 2.0080909054990077e-19 3.449888483814958e-11 3.321464710668838e-11 1.2842377314612032e-12
6.496522083828205 1.912004376623032e-19 3.2971540152869027e-11 3.1684350325829046e-11 1.2871898270399877e-12
