Dust emission spectrum from A.P. Jones, M. Kohler, N. Ysard, M. Bocchio, and L. Verstraete (2017), A&A, 602A, 46J 
inside the DustPedia framework.

lambda    nu*dP/dnu     j_nu    j_nu(carb.) j_nu(sil)
 (um)   (erg s-1 H-1) (Jy cm2 sr-1 H-1)
0.9927057738263894 2.4434488712055342e-23 6.438626560751798e-16 6.438626243755382e-16 3.16996416491538e-23
1.0001793341362166 2.4845814962856492e-23 6.596302388643111e-16 6.596302007067082e-16 3.8157602837789e-23
1.0077091589558085 2.5258418477776835e-23 6.756329058552716e-16 6.756328599847786e-16 4.5870493087851683e-23
1.0114953028030835 2.5465174509375903e-23 6.837226387387159e-16 6.83722588470463e-16 5.0268252939403784e-23
1.0152956718711033 2.5672220501713958e-23 6.918714377720433e-16 6.918713827026654e-16 5.506937822425636e-23
1.0229392996569957 2.6086943258901984e-23 7.083411797219477e-16 7.083411136957405e-16 6.602620718503199e-23
1.0267826658714554 2.629414490201509e-23 7.166498483016577e-16 7.166497760381691e-16 7.226348872005135e-23
1.0306404723013447 2.6501588959546753e-23 7.250175838259181e-16 7.25017504762159e-16 7.906375921023765e-23
1.03451277320114 2.670926659261161e-23 7.334444950550841e-16 7.334444085798071e-16 8.647527722647639e-23
1.0383996230291617 2.691716913937908e-23 7.419306938829538e-16 7.419305993327518e-16 9.455020205244955e-23
1.0403485208654093 2.7021202098209226e-23 7.461960620201041e-16 7.461959631662236e-16 9.885388051073852e-23
1.0423010764483396 2.712528812001483e-23 7.504762955405718e-16 7.504761921956835e-16 1.0334488841272719e-22
1.0462171883269815 2.733361524159581e-23 7.590814188032101e-16 7.590813058830084e-16 1.1292020178024586e-22
1.0471985131304309 2.7385728590379365e-23 7.612420141430688e-16 7.612418986994766e-16 1.1544359231301352e-22
1.048180758391296 2.7437854316014173e-23 7.634063391744578e-16 7.63406221153528e-16 1.180209299701402e-22
1.0501480137395462 2.754214240299731e-23 7.677461862005007e-16 7.677460628586452e-16 1.2334185556980834e-22
1.0521189612883777 2.764647852067006e-23 7.721009758191524e-16 7.721008469271427e-16 1.288920093805786e-22
1.0531058218030118 2.7698593504280765e-23 7.742820004866212e-16 7.742818687304663e-16 1.3175615474568295e-22
1.0540936079674168 2.775048823129275e-23 7.764602745605462e-16 7.764601398787474e-16 1.3468179868105095e-22
1.058054026499678 2.795817173463706e-23 7.852104043760216e-16 7.852102573577846e-16 1.470182369860048e-22
1.0590464539527713 2.801011817930534e-23 7.874072054358744e-16 7.874070551686114e-16 1.5026726287402128e-22
1.06003981227728 2.8062074622411095e-23 7.896077180916926e-16 7.896075645067708e-16 1.5358492189905992e-22
1.0620293250338977 2.816601705244344e-23 7.940198866459213e-16 7.940197262142451e-16 1.6043167630037293e-22
1.0660195594769086 2.8374016974850335e-23 8.028888569698194e-16 8.028886819586428e-16 1.7501117657447616e-22
1.070024785945596 2.8582164510324327e-23 8.118174558609051e-16 8.11817265008183e-16 1.9085272192759448e-22
1.0740450607676866 2.8790452890313495e-23 8.208058289751576e-16 8.208056209154358e-16 2.0805972207149296e-22
1.07808044048254 2.8998875573861727e-23 8.2985412734353e-16 8.29853900599983e-16 2.267435471319907e-22
1.0861967418109137 2.941577243234089e-23 8.481217208209152e-16 8.481214517904699e-16 2.690304451309033e-22
1.0902777775684922 2.9623492449033995e-23 8.573197950110608e-16 8.573195021095974e-16 2.929014636464071e-22
1.0943741465085532 2.9831310019474865e-23 8.665778482704374e-16 8.66577529484048e-16 3.187863894084047e-22
1.1026131145906286 3.0247216999127455e-23 8.852746102814178e-16 8.852742330294167e-16 3.7725200109712977e-22
1.1109141095355224 3.066345431781209e-23 9.042135137928617e-16 9.042130679325547e-16 4.458603067752121e-22
1.1192775983109025 3.1079652286487836e-23 9.233862347816643e-16 9.233857085175844e-16 5.262640796500636e-22
1.1277040513999907 3.1494241151974563e-23 9.427482226341759e-16 9.42747602267281e-16 6.203668950658699e-22
1.1361939428280308 3.190901932694877e-23 9.623551167867666e-16 9.623543864286535e-16 7.303581133620131e-22
1.1447477501889525 3.2323966035726683e-23 9.822089190690294e-16 9.822080603165825e-16 8.587524468814062e-22
1.1533659546722406 3.273922498820576e-23 1.002316674142098e-15 1.0023156657062647e-15 1.0084358335792248e-21
1.1707974979042381 3.357194819838483e-23 1.043344576900587e-15 1.043343191519415e-15 1.3853811721593052e-21
1.1884924949847024 3.440575718504515e-23 1.0854179432216474e-15 1.0854160495080392e-15 1.8937136082907693e-21
1.2064549276569216 3.5246413834675635e-23 1.1287440413895609e-15 1.1287414655761176e-15 2.5758134434073014e-21
1.2246888378427687 3.6087951250657954e-23 1.1731604677938852e-15 1.1731569813280622e-15 3.486465822831803e-21
1.2431983285522175 3.6929523575083945e-23 1.2186628031309973e-15 1.218658106888125e-15 4.696242872068943e-21
1.2619875648066055 3.777216575934642e-23 1.265308412431383e-15 1.2653021168418956e-15 6.295589487490285e-21
1.3004222497298317 3.945445383640626e-23 1.3619145523050064e-15 1.3619033975407244e-15 1.1154764281711366e-20
1.3400274889804893 4.113878275994263e-23 1.4633040610657917e-15 1.4632846583587523e-15 1.9402707039643852e-20
1.3808389325824078 4.2830487210827824e-23 1.5698764375695904e-15 1.5698432904867916e-15 3.3147082798829515e-20
1.4228933163050095 4.45440350850421e-23 1.6824080128129634e-15 1.6823523681003955e-15 5.564471256792955e-20
1.466228494730424 4.631159916271639e-23 1.8024402046372365e-15 1.8023483682183538e-15 9.183641888240736e-20
1.5108834753276823 4.812873729261754e-23 1.930211381070137e-15 1.930062304457909e-15 1.490766122285489e-19
1.5568984535646726 4.999393035637406e-23 2.0660793697281597e-15 2.06584110254798e-15 2.3826718017960153e-19
1.6043148490894465 5.1920511840741543e-23 2.211047137487086e-15 2.2106714843470123e-15 3.75653140073911e-19
1.6531753430134553 5.392325150731918e-23 2.3662706881181017e-15 2.365687153592884e-15 5.835345252176184e-19
1.7035239163302658 5.602042600542037e-23 2.533168478700818e-15 2.532275163509138e-15 8.933151916798395e-19
1.755405889504358 5.826022729453999e-23 2.714683221982775e-15 2.7133348241158437e-15 1.3483978669315312e-18
1.8088679632656115 6.064768810405469e-23 2.911994499446666e-15 2.9099869812178375e-15 2.0075182288290805e-18
1.8639582606462262 6.318855752437543e-23 3.126396511435251e-15 3.123447335714155e-15 2.9491757210964777e-18
1.9207263702978936 6.589937183511097e-23 3.3598215154674115e-15 3.3555448629041816e-15 4.276652563229494e-18
1.979223391128241 6.880246283413616e-23 3.614666485349668e-15 3.608542476200618e-15 6.124009149050177e-18
2.039501978296691 7.192049489586854e-23 3.893554258279398e-15 3.884891630372065e-15 8.662627907331712e-18
2.1016163906111602 7.530054843704745e-23 4.200693736671325e-15 4.1885843188846926e-15 1.2109417786631439e-17
2.1656225393682647 7.897403452456182e-23 4.539797915906068e-15 4.523063734765487e-15 1.67341811405818e-17
2.231578038680979 8.294917653233637e-23 4.913529760195887e-15 4.890661834198944e-15 2.2867925996942392e-17
2.299542257339062 8.724750146997103e-23 5.325542153321025e-15 5.2946305667018015e-15 3.091158661922405e-17
2.369576372248914 9.190152215604601e-23 5.780465964461739e-15 5.739120625179596e-15 4.134533928214296e-17
2.4417434235010123 9.694771867710961e-23 6.2835786249327225e-15 6.228842845347788e-15 5.473577958493259e-17
2.5161083711144245 1.0244237792973846e-22 6.841926849404932e-15 6.770181524336247e-15 7.174532506868253e-17
2.5927381535095444 1.08467525499218e-22 7.464965831774777e-15 7.371827713455552e-15 9.313811831922664e-17
2.6717017477616296 1.151017504295851e-22 8.162803384929926e-15 8.043023970331034e-15 1.1977941459888987e-16
2.753070231689431 1.2245185232464844e-22 8.948537917016585e-15 8.795900406344923e-15 1.526375106716633e-16
2.836916847834745 1.3076369203172708e-22 9.846983578281253e-15 9.654194562006334e-15 1.927890162749194e-16
2.9233170693905177 1.4055239995631574e-22 1.0906455234794784e-14 1.0665087918764681e-14 2.4136731603010493e-16
2.967498994190263 1.4646547377412064e-22 1.153706326720663e-14 1.1268373745701465e-14 2.6868952150516393e-16
3.0123486681368425 1.5283690505811245e-22 1.2220891999992502e-14 1.1922181638150171e-14 2.987103618423311e-16
3.0578761833420214 1.6258796277511848e-22 1.3197076032974594e-14 1.28653300971058e-14 3.3174593586879303e-16
3.1040917844459814 1.739425658325592e-22 1.4332100982393922e-14 1.3964390491964774e-14 3.677104904291503e-16
3.127460860933648 1.8383039832249732e-22 1.52608472230572e-14 1.4873874674063024e-14 3.8697254899417423e-16
3.1510058709225794 1.9623438480560897e-22 1.6413218594423016e-14 1.60061638768647e-14 4.070547175583116e-16
3.162844764501044 2.070621715419013e-22 1.738393438981855e-14 1.6966485497262818e-14 4.1744889255573284e-16
3.1747281389236908 2.193135414900311e-22 1.8481678976599376e-14 1.805362344649178e-14 4.280555301076002e-16
3.1986289994194426 2.52297463183854e-22 2.1421317939728967e-14 2.0971345818888825e-14 4.499721208401459e-16
3.2227097969389145 3.2739676239744655e-22 2.8006898196457496e-14 2.7533698053943578e-14 4.73200142513911e-16
3.2348180950136065 3.9749136106658806e-22 3.4130841120123083e-14 3.364524407200302e-14 4.855970481200623e-16
3.240889293275058 4.497124869939798e-22 3.868731376453962e-14 3.819517764106137e-14 4.921361234782358e-16
3.2469718861334385 5.101649856356422e-22 4.3970217061300936e-14 4.3471314877555156e-14 4.98902183745775e-16
3.2714166318528037 8.281498795737323e-22 7.191413042421199e-14 7.138726374793042e-14 5.268666762815775e-16
3.2744851364798273 8.481287361502851e-22 7.37181172076653e-14 7.318795382413048e-14 5.301633835348141e-16
3.2775565192852394 8.6864710124655e-22 7.557236218894722e-14 7.503888551486807e-14 5.334766740791413e-16
3.283707930232385 8.495185157976043e-22 7.404688679205303e-14 7.350748248845267e-14 5.394043036003562e-16
3.2898708863219004 7.8787350688383435e-22 6.880258953901495e-14 6.825778855195453e-14 5.44800987060428e-16
3.29141343181113 7.733149056377604e-22 6.756289516623062e-14 6.701673898717374e-14 5.461561790569001e-16
3.292184975758714 7.661581671822321e-22 6.695331691985376e-14 6.640648224047697e-14 5.468346793767913e-16
3.295272960557952 7.213108601636621e-22 6.309330809651756e-14 6.254383376248994e-14 5.494743340276219e-16
3.3076538914384823 5.650802292375338e-22 4.961347023119622e-14 4.9053392667588666e-14 5.600775636075389e-16
3.310756385682612 5.3304635336790695e-22 4.684482653017815e-14 4.628207611029386e-14 5.627504198842823e-16
3.313861789986515 5.033982383081696e-22 4.4280805856767127e-14 4.371537374385442e-14 5.654321129127193e-16
3.3200813396944477 4.620700579179586e-22 4.072170786651134e-14 4.0150508739627984e-14 5.711991268833438e-16
3.345076488085796 3.9044638591375548e-22 3.466864700577679e-14 3.407175057573592e-14 5.968964300408708e-16
3.3482140837626964 3.93572340271828e-22 3.497898644175076e-14 3.437860903722582e-14 6.003774045249388e-16
3.3513546224236106 3.967269388011656e-22 3.529242571360469e-14 3.4688551530510774e-14 6.038741830939227e-16
3.3576445397418455 4.1803636530297954e-22 3.725788632391301e-14 3.66467016162879e-14 6.11184707625106e-16
3.3702598118196083 4.948777195263257e-22 4.427216048951582e-14 4.364564145135335e-14 6.26519038162471e-16
3.382922481734668 5.137031808366403e-22 4.6128967521145014e-14 4.5487537529430257e-14 6.414299917147504e-16
3.389271646505754 5.2341033406316455e-22 4.708885219315929e-14 4.643986316695035e-14 6.489890262089501e-16
3.395632727569191 5.340173708226194e-22 4.81332878364127e-14 4.747650873011571e-14 6.567791062970082e-16
3.421196662673239 5.85080767449439e-22 5.3132872441268044e-14 5.244383919608519e-14 6.890332451828688e-16
3.4276182099114902 5.764014444882615e-22 5.24429284490731e-14 5.174669031541818e-14 6.962381336549122e-16
3.4340518103208963 5.358001550360568e-22 4.884038864471417e-14 4.813733262177485e-14 7.030560229393365e-16
3.4469541582030403 4.778359334698905e-22 4.372036172714333e-14 4.3004212892666965e-14 7.16148834476365e-16
3.472904465399547 4.631886151175424e-22 4.2699240073952304e-14 4.195294120299419e-14 7.462988709581118e-16
3.4990501388274233 4.401206130577265e-22 4.087815705801235e-14 4.010099022191285e-14 7.771668360994877e-16
3.5253949054701885 3.538300333933152e-22 3.3110969639392217e-14 3.230379057173065e-14 8.071790676615692e-16
3.5519380250092896 2.7192270436981373e-22 2.5637772141012284e-14 2.4800408680617102e-14 8.373634603951828e-16
3.578680990867387 2.409756055978149e-22 2.2891038713909277e-14 2.2020589592621423e-14 8.704491212878469e-16
3.605625307711299 2.3008465928889396e-22 2.2021033105220307e-14 2.1115727324572486e-14 9.053057806478233e-16
3.660119384959845 2.2556131361012387e-22 2.1914385621246227e-14 2.0935799547647135e-14 9.785860735991009e-16
3.715437065384467 2.2378375850368813e-22 2.207028320432787e-14 2.1014375018912664e-14 1.0559081854152057e-15
3.8285932144167436 2.309729896820307e-22 2.3473067852818475e-14 2.2250734037645812e-14 1.2223338151726621e-15
3.94519561050918 2.4121203059168837e-22 2.5260208968793345e-14 2.385603644093694e-14 1.4041725278564074e-15
4.06534921144712 2.5277152713583806e-22 2.7276927069534624e-14 2.567563591174262e-14 1.6012911577920022e-15
4.189162171576248 2.6511417636154124e-22 2.9480141073783364e-14 2.7666016375145395e-14 1.814124698637961e-15
4.316745939156006 2.779855783565036e-22 3.185284203672508e-14 2.981088531202301e-14 2.04195672470207e-15
4.448215356677963 2.9123299645493217e-22 3.4387120996400194e-14 3.210540744726452e-14 2.281713549135669e-15
4.58368876423945 3.047977005376068e-22 3.708482554754707e-14 3.455108822513316e-14 2.5337373224139003e-15
4.723288106065518 3.186765870703335e-22 3.9954346109278544e-14 3.715470375611163e-14 2.7996423531669245e-15
4.867139040275056 3.328503904523977e-22 4.300235664752409e-14 3.9929831644636803e-14 3.072525002887282e-15
4.940699165968905 3.4018518281905106e-22 4.4614213111354057e-14 4.140179978066145e-14 3.212413330692606e-15
5.015371051989984 3.4746923503324932e-22 4.625821391513016e-14 4.2904035812936194e-14 3.354178102193964e-15
5.091171501069577 3.551767818718625e-22 4.799894898532313e-14 4.4498103602816486e-14 3.500845382506647e-15
5.129500256944802 3.5900395848377602e-22 4.8881410162222064e-14 4.530666481990771e-14 3.574745342314352e-15
5.168117569889187 3.628568400180081e-22 4.977796432199862e-14 4.6128242534725126e-14 3.6497217872734925e-15
5.20702561229733 3.6707852634119297e-22 5.073622217493557e-14 4.700472969827815e-14 3.731492476657419e-15
5.246226572918644 3.7129371494276814e-22 5.170518230378867e-14 4.789132468134942e-14 3.813857622439265e-15
5.265937586045735 3.733987301143984e-22 5.2193687028338675e-14 4.833843377453157e-14 3.855253253807095e-15
5.285722656980489 3.7550195709554053e-22 5.2684881769192294e-14 4.8788096191511215e-14 3.89678557768107e-15
5.305582063971359 3.776033489861831e-22 5.3178772296482845e-14 4.924032176453103e-14 3.938450531951809e-15
5.3255160863122235 3.797715720924503e-22 5.3685077734198864e-14 4.9704507544071524e-14 3.98057019012734e-15
5.365609099470188 3.846365611968652e-22 5.478214412274127e-14 5.0714430222299384e-14 4.0677139004418766e-15
5.406003951863644 3.8952626640976387e-22 5.589623293692191e-14 5.174076327996929e-14 4.1554696569526095e-15
5.446702915881641 3.944424336251152e-22 5.70278174228042e-14 5.2784012244125655e-14 4.243805178678551e-15
5.487708281020852 3.9951804876178447e-22 5.819649829770916e-14 5.3863437152393636e-14 4.3330611453155144e-15
5.529022354014368 4.0579417919156174e-22 5.955573543477898e-14 5.512961959330134e-14 4.426115841477636e-15
5.570647458961463 4.1219698808106927e-22 6.0950871809215e-14 5.643105972442382e-14 4.519812084791177e-15
5.612585937458331 4.1873722804797297e-22 6.238411387807859e-14 5.776999677759192e-14 4.6141171004866876e-15
5.654840148729818 4.256253228079851e-22 6.388769572626711e-14 5.917823621332371e-14 4.709459512943391e-15
5.67608639626678 4.300119534919612e-22 6.478865417065799e-14 6.002930632506514e-14 4.759347845592835e-15
5.686739436050992 4.322399725475207e-22 6.524657055432354e-14 6.046221154805562e-14 4.78435900626789e-15
5.6974124697621304 4.344919117169613e-22 6.570959509681731e-14 6.090018095029609e-14 4.809414146521215e-15
5.718818669136295 4.390699968137707e-22 6.665143751674792e-14 6.179178321685094e-14 4.8596542998969574e-15
5.740305295436557 4.439999631199022e-22 6.765304644722846e-14 6.274260747689296e-14 4.91043897033549e-15
5.7835210386641895 4.562683906909944e-22 7.004580578054807e-14 6.503037607751805e-14 5.015429703030027e-15
5.827062130521658 4.698596345312532e-22 7.267536445048099e-14 6.755325350434946e-14 5.1221109461315095e-15
5.8489554468988025 4.791490165119554e-22 7.4390648956583e-14 6.921090692114695e-14 5.179742035436057e-15
5.870931020387893 4.88916957283541e-22 7.619237497862993e-14 7.095472755904172e-14 5.2376474195882e-15
5.892989160043636 4.9920133360410215e-22 7.808737291608534e-14 7.279154959153065e-14 5.2958233245546915e-15
5.915130176081913 5.1072597484971865e-22 8.019027186271236e-14 7.48341358556181e-14 5.356136007094255e-15
5.95966208400165 5.424552215024818e-22 8.581337100671397e-14 8.031962369262762e-14 5.4937473140863755e-15
6.004529249263818 5.871216626946625e-22 9.357859111818598e-14 8.792988366431298e-14 5.648707453872992e-15
6.027089341400364 6.178358093512259e-22 9.884396047291042e-14 9.310562575610414e-14 5.73833471680628e-15
6.049734195844842 6.53634044702223e-22 1.0496400450145048e-13 9.913070939694483e-14 5.833295104505635e-15
6.095279466722835 7.561602509584438e-22 1.2234237295286553e-13 1.1627534485577851e-13 6.067028097087022e-15
6.141167624020661 9.116201567542214e-22 1.4860530177728244e-13 1.4223452071018667e-13 6.370781067095755e-15
6.164241091010745 1.0105890220656825e-21 1.6535739634803228e-13 1.5879577785841876e-13 6.561618489613554e-15
6.187401249150058 1.1216975049946263e-21 1.8422707957310532e-13 1.7746950965751557e-13 6.757569915589703e-15
6.1990139391386085 1.1757425858768339e-21 1.9346584063586306e-13 1.8660856636900706e-13 6.8572742668559755e-15
6.204828454712694 1.2040721326707586e-21 1.9831324327661943e-13 1.9140561040271883e-13 6.907632873900624e-15
6.210648424152782 1.2246662409798332e-21 2.0189433098078362e-13 1.949438360477545e-13 6.950494933029144e-15
6.233982942956859 1.2938987385497415e-21 2.1410920167036172e-13 2.0700945262794095e-13 7.099749042420772e-15
6.239830258556775 1.3023541438753922e-21 2.1571050971811758e-13 2.0859018698524595e-13 7.120322732871559e-15
6.245683058788269 1.3025453992500048e-21 2.159445482006294e-13 2.0880361932716275e-13 7.14092887346665e-15
6.257405133728602 1.2993858400727408e-21 2.1582504342832788e-13 2.0864812713592236e-13 7.17691629240545e-15
6.269149208991335 1.2842160211440327e-21 2.137057084456278e-13 2.0651595564847576e-13 7.189752797152063e-15
6.280915325867298 1.2480821166803333e-21 2.0808248804204302e-13 2.009085241771935e-13 7.173963864849572e-15
6.304513850009849 1.1597744837390745e-21 1.9408616812469477e-13 1.8696967997451494e-13 7.116488150179824e-15
6.32820103803542 1.0518438833702617e-21 1.7668553118092403e-13 1.6965407320470166e-13 7.031457976222377e-15
6.3519772230701035 9.5338420605405e-22 1.6074827390561527e-13 1.5379307733905516e-13 6.955196566560088e-15
6.375842739491607 8.702667753389106e-22 1.4728531001337718e-13 1.403973831397849e-13 6.887926873592311e-15
6.399797922933955 8.045795392129992e-22 1.366799081437079e-13 1.298265676017043e-13 6.853340542003631e-15
6.42384311029221 7.497398198613912e-22 1.2784240620491115e-13 1.2101714079535176e-13 6.825265409559392e-15
6.447978639727206 7.101895308959144e-22 1.2155344982185597e-13 1.1473076936055284e-13 6.822680461303122e-15
6.472204850670314 6.771597205947028e-22 1.1633564573126218e-13 1.0951049247740677e-13 6.825153253855432e-15
6.496522083828205 6.559515432506794e-22 1.1311549759538167e-13 1.0626721497834353e-13 6.848282617038155e-15
6.520930681187647 6.380799605708063e-22 1.104470504033227e-13 1.0357250967152132e-13 6.8745407318013344e-15
