Dust emission spectrum from A.P. Jones, M. Kohler, N. Ysard, M. Bocchio, and L. Verstraete (2017), A&A, 602A, 46J 
inside the DustPedia framework.

lambda    nu*dP/dnu     j_nu    j_nu(carb.) j_nu(sil)
 (um)   (erg s-1 H-1) (Jy cm2 sr-1 H-1)
0.9927057738263894 9.86832727626283e-21 2.6003602882751984e-13 2.600360058793812e-13 2.2948138606750654e-20
1.0001793341362166 1.0033956328626564e-20 2.663909805212951e-13 2.6639095291000386e-13 2.7611291198269434e-20
1.0077091589558085 1.0200287384877327e-20 2.728456578731178e-13 2.7284562469557233e-13 3.317754544503572e-20
1.0114953028030835 1.0283709394293103e-20 2.761106121813308e-13 2.7611057583131344e-13 3.635001731213319e-20
1.0152956718711033 1.0367298919382378e-20 2.7940076350959806e-13 2.7940072369711124e-13 3.981248675711861e-20
1.0229392996569957 1.0534888888327319e-20 2.860548109963384e-13 2.8605476328547474e-13 4.771086363910373e-20
1.0267826658714554 1.0618699391506498e-20 2.894138347697644e-13 2.8941378256458617e-13 5.2205178198670436e-20
1.0306404723013447 1.070266357470593e-20 2.927982656919023e-13 2.927982085881912e-13 5.710371110165583e-20
1.03451277320114 1.0786779231907268e-20 2.962082024822575e-13 2.9620814004129674e-13 6.244096076812555e-20
1.0383996230291617 1.0871044241122933e-20 2.9964374616381674e-13 2.996436779096172e-13 6.825419950403341e-20
1.0403485208654093 1.0913232113105225e-20 3.013711528122631e-13 3.0137108146049124e-13 7.135177181245624e-20
1.0423010764483396 1.0955456566480009e-20 3.0310500016038373e-13 3.03104925576702e-13 7.458368176074494e-20
1.0462171883269815 1.1040014260293075e-20 3.065920703953568e-13 3.0659198892248993e-13 8.147286682264012e-20
1.0471985131304309 1.1061176177886867e-20 3.07467884400343e-13 3.074678011123092e-13 8.328803378546559e-20
1.048180758391296 1.1082347036340078e-20 3.0834532041142106e-13 3.0834523526955753e-13 8.514186349955041e-20
1.0501480137395462 1.1124715465124881e-20 3.1010506539193096e-13 3.1010497642327416e-13 8.896865682972377e-20
1.0521189612883777 1.1167119328905048e-20 3.1187131932517574e-13 3.118712263654864e-13 9.295968924737064e-20
1.0531058218030118 1.118830659477431e-20 3.1275611199971835e-13 3.1275601698070353e-13 9.50190148772756e-20
1.0540936079674168 1.1209411278437785e-20 3.1363997946181106e-13 3.1363988233941105e-13 9.712239998993106e-20
1.058054026499678 1.1293913637276216e-20 3.1719164537239514e-13 3.1719153938249916e-13 1.0598989596966277e-19
1.0590464539527713 1.1315060012061354e-20 3.180836198691612e-13 3.1808351154430367e-13 1.0832485747647039e-19
1.06003981227728 1.1336214653837839e-20 3.1897722121606343e-13 3.1897711050710877e-13 1.107089546575099e-19
1.0620293250338977 1.13785486473998e-20 3.207693118406214e-13 3.207691962121196e-13 1.1562850178525568e-19
1.0660195594769086 1.1463314859848446e-20 3.2437309715669577e-13 3.2437297105501446e-13 1.2610168141836532e-19
1.070024785945596 1.1548210926932927e-20 3.280031227537503e-13 3.2800298527594516e-13 1.3747780509190307e-19
1.0740450607676866 1.163323560419198e-20 3.3165951331646957e-13 3.3165936348596744e-13 1.4983050212840977e-19
1.07808044048254 1.171838775233054e-20 3.3534239689102423e-13 3.3534223365198713e-13 1.6323903711125801e-19
1.0861967418109137 1.1888940972110401e-20 3.4278443985100337e-13 3.4278424627969543e-13 1.935713079053302e-19
1.0902777775684922 1.1974045966203472e-20 3.465353266789898e-13 3.465351159934464e-13 2.1068554317244532e-19
1.0943741465085532 1.2059269918291173e-20 3.503130157771441e-13 3.503127865396874e-13 2.292374567298389e-19
1.1026131145906286 1.223007257088654e-20 3.579493852018638e-13 3.579491140830761e-13 2.7111878776308646e-19
1.1109141095355224 1.2401345861183319e-20 3.6569475834910555e-13 3.656944381166906e-13 3.2023241495690227e-19
1.1192775983109025 1.2572955596786906e-20 3.735464612530924e-13 3.735460835026789e-13 3.777504134290972e-19
1.1277040513999907 1.2744291084804695e-20 3.8148745070426716e-13 3.814870056827373e-13 4.450215299761234e-19
1.1361939428280308 1.2916080098901188e-20 3.8954051344058854e-13 3.8953998984488994e-13 5.235956986360873e-19
1.1447477501889525 1.3088327797181539e-20 3.9770714657607457e-13 3.977065313244775e-13 6.152515970127371e-19
1.1533659546722406 1.3261101209745169e-20 4.0599076077096766e-13 4.059900387423006e-13 7.220286670022897e-19
1.1707974979042381 1.3608753876313065e-20 4.2293105754015134e-13 4.2293006691528607e-13 9.906248653274732e-19
1.1884924949847024 1.395862375597839e-20 4.4036062354135354e-13 4.403592712298433e-13 1.3523115102802053e-18
1.2064549276569216 1.4313074504939725e-20 4.583671302616717e-13 4.583652933481931e-13 1.8369134785586306e-18
1.2246888378427687 1.4669901132691935e-20 4.768945722571364e-13 4.76892089343463e-13 2.482913673370385e-18
1.2431983285522175 1.5028859108466765e-20 4.959476807694857e-13 4.959443409795419e-13 3.3397899436234645e-18
1.2619875648066055 1.5390525168826012e-20 5.155584959550238e-13 5.155540251217695e-13 4.470833254262529e-18
1.3004222497298317 1.6120033698969036e-20 5.564418295917473e-13 5.564339309222739e-13 7.898669473266422e-18
1.3400274889804893 1.6861076811270432e-20 5.997475014233668e-13 5.997338031558535e-13 1.369826751327645e-17
1.3808389325824078 1.7616892767853835e-20 6.457163263940681e-13 6.456929956490732e-13 2.3330744995214255e-17
1.4228933163050095 1.8394302969488664e-20 6.947444847978971e-13 6.947054403969263e-13 3.9044400970659045e-17
1.466228494730424 1.9207118990964742e-20 7.475380706014824e-13 7.474738352745145e-13 6.423532696787594e-17
1.5108834753276823 2.0054761215318475e-20 8.042996870476675e-13 8.041957510648068e-13 1.0393598286068917e-16
1.5568984535646726 2.0937692119468207e-20 8.652837140306524e-13 8.651181390125751e-13 1.655750180772765e-16
1.6043148490894465 2.186216950142804e-20 9.31005600323442e-13 9.307454189834168e-13 2.6018134002560694e-16
1.6531753430134553 2.283500664859088e-20 1.0020502359396553e-12 1.0016474344145561e-12 4.028015250990173e-16
1.7035239163302658 2.3864189290535088e-20 1.0791066114828178e-12 1.0784920850887796e-12 6.14526394038412e-16
1.755405889504358 2.4969547483322743e-20 1.1634766076484406e-12 1.1625522483462228e-12 9.24359302217527e-16
1.8088679632656115 2.615374369369721e-20 1.255770172892913e-12 1.2543988349095796e-12 1.3713379833329214e-15
1.8639582606462262 2.7419406188027384e-20 1.3566370116742472e-12 1.3546296623292753e-12 2.007349344971622e-15
1.9207263702978936 2.877345565484533e-20 1.4669893307236256e-12 1.4640890637024867e-12 2.900267021139394e-15
1.979223391128241 3.022508387685584e-20 1.587931495561922e-12 1.5837938295633713e-12 4.137665998550594e-15
2.039501978296691 3.178337377819907e-20 1.7206540429924317e-12 1.7148232464345737e-12 5.830796557857756e-15
2.1016163906111602 3.346732259986988e-20 1.86699798801551e-12 1.8588784313681737e-12 8.11955664733678e-15
2.1656225393682647 3.528952276209947e-20 2.0286072865996553e-12 2.017430536427794e-12 1.1176750171861533e-14
2.231578038680979 3.725286392416311e-20 2.2066892426900326e-12 2.1914764096025727e-12 1.5212833087459636e-14
2.299542257339062 3.936587323863703e-20 2.4028724468036405e-12 2.382391689603318e-12 2.0480757200323405e-14
2.369576372248914 4.16409865909011e-20 2.6191547220143187e-12 2.591873704449979e-12 2.728101756434034e-14
2.4417434235010123 4.409207311977332e-20 2.857787805271938e-12 2.821822712132578e-12 3.5965093139360505e-14
2.5161083711144245 4.6740364960533165e-20 3.121697918744063e-12 3.074757760877982e-12 4.6940157866081127e-14
2.5927381535095444 4.9615989409688644e-20 3.4146779319280696e-12 3.3540066711145003e-12 6.067126081356854e-14
2.6717017477616296 5.2745318289426363e-20 3.7406004779704014e-12 3.662921314217044e-12 7.767916375335813e-14
2.753070231689431 5.616275877595124e-20 4.104262752174733e-12 4.005723122485802e-12 9.853962968893125e-14
2.836916847834745 5.995000507742565e-20 4.514454328591899e-12 4.390569483282887e-12 1.2388484530901078e-13
2.9233170693905177 6.42750669079163e-20 4.987557239595385e-12 4.8331913098257924e-12 1.5436592976959296e-13
2.967498994190263 6.677865418653426e-20 5.260144513218978e-12 5.0887454580043965e-12 1.7139905521458017e-13
3.0123486681368425 6.944385789694621e-20 5.552754991333551e-12 5.362688576480332e-12 1.9006641485322003e-13
3.0578761833420214 7.325654177970124e-20 5.9461483819480295e-12 5.735588322964005e-12 2.1056005898402516e-13
3.1040917844459814 7.758661664402061e-20 6.39279534196824e-12 6.159997861701024e-12 2.327974802672166e-13
3.127460860933648 8.115268966447946e-20 6.7369641256890555e-12 6.49228551210559e-12 2.4467861358346406e-13
3.1510058709225794 8.55369483887795e-20 7.1543864914177295e-12 6.897341894923849e-12 2.5704459649388023e-13
3.162844764501044 8.927306463997304e-20 7.494932980383983e-12 7.231496019144008e-12 2.634369612399731e-13
3.1747281389236908 9.345857802678009e-20 7.875808420060224e-12 7.605854071857436e-12 2.699543482027872e-13
3.1986289994194426 1.0457327428343237e-19 8.87879461075471e-12 8.595390533322513e-12 2.834040774321989e-13
3.2227097969389145 1.2950711824704862e-19 1.1078584436514761e-11 1.0780947226420914e-11 2.976372100938451e-13
3.2348180950136065 1.5261877387949662e-19 1.310470524252846e-11 1.2799477075982782e-11 3.05228166545676e-13
3.240889293275058 1.6980649464020188e-19 1.460790466663214e-11 1.4298672435149138e-11 3.0923223148300524e-13
3.2469718861334385 1.8970089762522643e-19 1.634998457393561e-11 1.603660933133378e-11 3.1337524260183257e-13
3.2714166318528037 2.9372359160210414e-19 2.550610366086647e-11 2.5175622666334903e-11 3.304809945315628e-13
3.2744851364798273 3.0025913626291316e-19 2.6098087773999943e-11 2.5765595224070758e-11 3.324925499291849e-13
3.2775565192852394 3.069662191719224e-19 2.6706083819012115e-11 2.6371570053044282e-11 3.345137659678375e-13
3.283707930232385 3.0074441327687154e-19 2.6213893057229732e-11 2.5875773458037417e-11 3.3811959919231483e-13
3.2898708863219004 2.8064182383235637e-19 2.450759423170336e-11 2.416620116652823e-11 3.41393065175131e-13
3.29141343181113 2.75892318219495e-19 2.4104130978387677e-11 2.3761916132254077e-11 3.422148461336004e-13
3.292184975758714 2.7355726501979844e-19 2.390572475127397e-11 2.3563098502063343e-11 3.4262624921063123e-13
3.295272960557952 2.5897333107426374e-19 2.265248600657782e-11 2.230826099724918e-11 3.4422500932864546e-13
3.3076538914384823 2.08080932149025e-19 1.8269294515550358e-11 1.7918652107962578e-11 3.5064240758777777e-13
3.310756385682612 1.9762090705267857e-19 1.736718964706935e-11 1.7014930500409067e-11 3.522591466602857e-13
3.313861789986515 1.8793031723383107e-19 1.6531058829287283e-11 1.61771779833033e-11 3.5388084598398197e-13
3.3200813396944477 1.7445440491205739e-19 1.5374467986229535e-11 1.5017095265229337e-11 3.573727210001991e-13
3.345076488085796 1.5137186845451266e-19 1.3440661927944087e-11 1.306771783938079e-11 3.7294408856329565e-13
3.3482140837626964 1.5243526467210983e-19 1.3547778922999902e-11 1.3172725006893186e-11 3.750539161067185e-13
3.3513546224236106 1.5350756874856546e-19 1.3655877473069884e-11 1.3278704656342564e-11 3.771728167273208e-13
3.3576445397418455 1.6055544302298343e-19 1.4309655669549882e-11 1.3928051284118619e-11 3.8160438543126513e-13
3.3702598118196083 1.8575092489649195e-19 1.6617427767741777e-11 1.6226528678066454e-11 3.9089908967531993e-13
3.382922481734668 1.9206732579444475e-19 1.72470558173604e-11 1.6847135773683888e-11 3.999200436765093e-13
3.389271646505754 1.9531748516869494e-19 1.7571827668076462e-11 1.7167337815458272e-11 4.044898526181895e-13
3.395632727569191 1.9888505495453596e-19 1.79263674171139e-11 1.7517168089922583e-11 4.091993271913222e-13
3.421196662673239 2.1606087067666226e-19 1.962111099849897e-11 1.9192430990541256e-11 4.286800079577147e-13
3.4276182099114902 2.132921603527373e-19 1.9406033088722816e-11 1.897302024320779e-11 4.330128455150253e-13
3.4340518103208963 2.0008176522607023e-19 1.8238276123126755e-11 1.7801172269522644e-11 4.371038536041153e-13
3.4469541582030403 1.8120696406460836e-19 1.6579820523023408e-11 1.6134878885710357e-11 4.4494163731304916e-13
3.472904465399547 1.7660306306415877e-19 1.6280228704797154e-11 1.5817210246861997e-11 4.630184579351548e-13
3.4990501388274233 1.6929178248327789e-19 1.5723726332432922e-11 1.5242241716705202e-11 4.814846157277259e-13
3.5253949054701885 1.4151920701627165e-19 1.3243189454462964e-11 1.2743816757607258e-11 4.993726968557087e-13
3.5519380250092896 1.1510875853324795e-19 1.0852834556605053e-11 1.0335524320005733e-11 5.173102365993198e-13
3.578680990867387 1.053446054240311e-19 1.0007018905837576e-11 9.47005386168241e-12 5.369650441551689e-13
3.605625307711299 1.0213528868096515e-19 9.77520439739865e-12 9.217564228047626e-12 5.576401693510227e-13
3.660119384959845 1.0133936616334132e-19 9.845615425678467e-12 9.244653620586314e-12 6.009618050921556e-13
3.715437065384467 1.0141718191642155e-19 1.0002092831251534e-11 9.355629303119485e-12 6.464635281320472e-13
3.8285932144167436 1.0505207206645105e-19 1.0676115934982955e-11 9.932445807835405e-12 7.436701271475465e-13
3.94519561050918 1.0962590862965075e-19 1.1480245631140772e-11 1.0631456828127557e-11 8.487888030132171e-13
4.06534921144712 1.1455861095351208e-19 1.2362179045929031e-11 1.1400692666356083e-11 9.614863795729461e-13
4.189162171576248 1.1965895960046345e-19 1.3305825656615215e-11 1.222406450389355e-11 1.0817611527216713e-12
4.316745939156006 1.2482363221823237e-19 1.4302855072570003e-11 1.3093936546056703e-11 1.2089185265132995e-12
4.448215356677963 1.29977822926827e-19 1.5347035460403732e-11 1.4006124908012714e-11 1.3409105523910176e-12
4.58368876423945 1.3508518024503812e-19 1.6435853468087728e-11 1.4958179236948056e-11 1.477674231139671e-12
4.723288106065518 1.4012928414090492e-19 1.7568827286880275e-11 1.5948970335291267e-11 1.6198569515890107e-12
4.867139040275056 1.4507127222358696e-19 1.8742374251055357e-11 1.697914697097963e-11 1.7632272800757295e-12
4.940699165968905 1.4754343808134168e-19 1.9349856261212248e-11 1.7514101731608266e-11 1.8357545296039806e-12
5.015371051989984 1.4994404451510078e-19 1.9961892988355102e-11 1.8053316577137542e-11 1.9085764112175638e-12
5.091171501069577 1.5242538979991238e-19 2.059892110772455e-11 1.8615573092013736e-11 1.9833480157108083e-12
5.129500256944802 1.536346963697973e-19 2.0918656830743257e-11 1.889791507076134e-11 2.0207417599819256e-12
5.168117569889187 1.5483782978423967e-19 2.1241192439180876e-11 1.9182648217334276e-11 2.0585442218465983e-12
5.20702561229733 1.5615213407812206e-19 2.1582764447283525e-11 1.948269321775257e-11 2.1000712295309564e-12
5.246226572918644 1.5744763146776676e-19 2.1925656591293128e-11 1.9783953111554814e-11 2.141703479738311e-12
5.265937586045735 1.5808821452559905e-19 2.209757593254281e-11 1.9935023665035157e-11 2.1625522675076517e-12
5.285722656980489 1.5872396356181758e-19 2.226979938766145e-11 2.0086380218286552e-11 2.1834191693748975e-12
5.305582063971359 1.5935483803594132e-19 2.244231855731319e-11 2.0238017136758784e-11 2.204301420554403e-12
5.3255160863122235 1.6000259098069185e-19 2.2618205694397283e-11 2.0392822691273927e-11 2.2253830031233585e-12
5.365609099470188 1.6145152829962624e-19 2.2994852243440475e-11 2.0725832057258706e-11 2.2690201861817722e-12
5.406003951863644 1.628885772170574e-19 2.3374182025790615e-11 2.1061431315512608e-11 2.3127507102780113e-12
5.446702915881641 1.643139799422654e-19 2.375623627012624e-11 2.139968389597877e-11 2.356552374147471e-12
5.487708281020852 1.6576858390733897e-19 2.4146971935501447e-11 2.1746359278606038e-11 2.40061265689541e-12
5.529022354014368 1.6757167310347682e-19 2.4593389312769766e-11 2.2146849376646348e-11 2.446539936123423e-12
5.570647458961463 1.69388430619221e-19 2.5047180884799895e-11 2.2554628612582893e-11 2.492552272216997e-12
5.612585937458331 1.7122148127639193e-19 2.5508838648318136e-11 2.2970211562903982e-11 2.5386270854141587e-12
5.654840148729818 1.7313401432022245e-19 2.598795850252458e-11 2.3402960996423796e-11 2.5849975061007868e-12
5.67608639626678 1.743651778711436e-19 2.627109576085302e-11 2.366179264078983e-11 2.609303120063193e-12
5.686739436050992 1.749880096043274e-19 2.6414418471105564e-11 2.3792953237177007e-11 2.6214652339285562e-12
5.6974124697621304 1.7561587749880373e-19 2.6558948260781144e-11 2.3925315186846483e-11 2.633633073934663e-12
5.718818669136295 1.768873550110854e-19 2.6851747046211272e-11 2.4193762554674926e-11 2.657984491536344e-12
5.740305295436557 1.782556005318939e-19 2.716111581974646e-11 2.447855985974873e-11 2.6825559599977422e-12
5.7835210386641895 1.8168169915242676e-19 2.789156836711378e-11 2.5158256372547477e-11 2.7333119945663153e-12
5.827062130521658 1.8545388770073181e-19 2.8685011196706143e-11 2.590034092489387e-11 2.7846702718122784e-12
5.8489554468988025 1.8806251261071013e-19 2.919778998892557e-11 2.638524595393983e-11 2.8125440349857328e-12
5.870931020387893 1.9079400404425015e-19 2.973316446331227e-11 2.6892684436248498e-11 2.840480027063773e-12
5.892989160043636 1.9365843257390894e-19 3.029294439893525e-11 2.7424469072116855e-11 2.8684753268183995e-12
5.915130176081913 1.9687015465444133e-19 3.091104036374737e-11 2.80134997364756e-11 2.8975406272717604e-12
5.95966208400165 2.0578239933953597e-19 3.255362043020648e-11 2.9589048119181984e-11 2.964572311024485e-12
6.004529249263818 2.183497308431852e-19 3.480174805603566e-11 3.176129140970216e-11 3.0404566463334895e-12
6.027089341400364 2.2701430239936923e-19 3.6318698905962103e-11 3.3233996450624027e-11 3.084702455338079e-12
6.049734195844842 2.3709271441863465e-19 3.8073599356098585e-11 3.494194175585107e-11 3.1316576002475094e-12
6.095279466722835 2.659905145549452e-19 4.303573309011996e-11 3.978730505954729e-11 3.2484280305726514e-12
6.141167624020661 3.0971204338612147e-19 5.048687365066892e-11 4.708521704832838e-11 3.4016566023405454e-12
6.164241091010745 3.3751005297929107e-19 5.52250048074584e-11 5.1726373360039886e-11 3.4986314474185127e-12
6.187401249150058 3.6856784231042746e-19 6.05334120037435e-11 5.69353598589131e-11 3.5980521448304064e-12
6.1990139391386085 3.8362454669185336e-19 6.312457021274053e-11 5.947595879437814e-11 3.648611418362387e-12
6.204828454712694 3.915048485534562e-19 6.448168192626681e-11 6.080755036201168e-11 3.6741315642551394e-12
6.210648424152782 3.971912804975812e-19 6.547961000647886e-11 6.178391294500734e-11 3.695697061471536e-12
6.233982942956859 4.161424241414266e-19 6.886158828314265e-11 6.509145563491096e-11 3.770132648231679e-12
6.239830258556775 4.183542492341709e-19 6.929252597646573e-11 6.551263216611715e-11 3.779893810348583e-12
6.245683058788269 4.1824379539220534e-19 6.933920881812668e-11 6.55495441469818e-11 3.789664671144863e-12
6.257405133728602 4.1702078640156436e-19 6.926620758818996e-11 6.545977219462457e-11 3.806435393565405e-12
6.269149208991335 4.12406168531515e-19 6.862829225168936e-11 6.48173002713574e-11 3.810991980331969e-12
6.280915325867298 4.0189641316365765e-19 6.700489051850265e-11 6.32044237304403e-11 3.800466788062356e-12
6.304513850009849 3.764152829873457e-19 6.299241871838151e-11 5.92266141544572e-11 3.765804563924299e-12
6.32820103803542 3.4556361041454696e-19 5.8046722549034065e-11 5.433005908882908e-11 3.716663460204966e-12
6.3519772230701035 3.1748956690257405e-19 5.3531304104419744e-11 4.985913858707103e-11 3.672165517348731e-12
6.375842739491607 2.93757192623714e-19 4.9715926667881606e-11 4.60834783141409e-11 3.6324483537407145e-12
6.399797922933955 2.7505225957675944e-19 4.672517226878967e-11 4.311532365760388e-11 3.6098486111857837e-12
6.42384311029221 2.5939843607877708e-19 4.423150452410621e-11 4.0640826340477705e-11 3.590678183628486e-12
6.447978639727206 2.480835791059402e-19 4.246108056033837e-11 3.8876271152952964e-11 3.584809407385397e-12
6.472204850670314 2.3859979707002107e-19 4.09913062151886e-11 3.740973819388987e-11 3.5815680212987344e-12
6.496522083828205 2.3244519307382986e-19 4.0083987832242357e-11 3.649492523127861e-11 3.5890626009637478e-12
6.520930681187647 2.272255278878914e-19 3.9331104065868346e-11 3.5732959640489416e-11 3.5981444253789174e-12
