Dust emission spectrum from A.P. Jones, M. Kohler, N. Ysard, M. Bocchio, and L. Verstraete (2017), A&A, 602A, 46J 
inside the DustPedia framework.

lambda    nu*dP/dnu     j_nu    j_nu(carb.) j_nu(sil)
 (um)   (erg s-1 H-1) (Jy cm2 sr-1 H-1)
0.9927057738263894 9.37676318328422e-25 2.4708303577470258e-17 2.4708303572293343e-17 5.1769145448060356e-27
1.0001793341362166 9.531500666796338e-25 2.5305131149746632e-17 2.530513114351157e-17 6.235061051634442e-27
1.0077091589558085 9.686018223682044e-25 2.590895643126352e-17 2.5908956423763764e-17 7.499761288026997e-27
1.0114953028030835 9.763175582759604e-25 2.621346329064443e-17 2.621346328242315e-17 8.221274049790765e-27
1.0152956718711033 9.840255285091587e-25 2.65196832961361e-17 2.6519683287126825e-17 9.009266800308109e-27
1.0229392996569957 9.994076029761695e-25 2.7137006949775563e-17 2.7137006938966924e-17 1.080864026616155e-26
1.0267826658714554 1.0070630398899233e-24 2.7447615332492163e-17 2.7447615320658617e-17 1.1833542752278354e-26
1.0306404723013447 1.0147073405818303e-24 2.775987000183417e-17 2.775986998888276e-17 1.2951403987612062e-26
1.03451277320114 1.0223397710235293e-24 2.807375764261916e-17 2.807375762844893e-17 1.4170240112152477e-26
1.0383996230291617 1.0299596013269138e-24 2.838926477472493e-17 2.8389264759226205e-17 1.549871994679265e-26
1.0403485208654093 1.0337645645035431e-24 2.8547621393187166e-17 2.854762137698019e-17 1.6206975902807344e-26
1.0423010764483396 1.0375661058850375e-24 2.870637775635299e-17 2.870637773940678e-17 1.694621474877879e-26
1.0462171883269815 1.0451585635099505e-24 2.90250827872976e-17 2.902508276877476e-17 1.852285147988148e-26
1.0471985131304309 1.0470543990003392e-24 2.910500617070993e-17 2.910500615177148e-17 1.8938452370818906e-26
1.048180758391296 1.0489493005927574e-24 2.9185027966190154e-17 2.9185027946827174e-17 1.936298333096233e-26
1.0501480137395462 1.0527362575674277e-24 2.934536591221834e-17 2.934536589197877e-17 2.023956981350101e-26
1.0521189612883777 1.0565193455878015e-24 2.950609485726224e-17 2.9506094836108124e-17 2.1154115377498268e-26
1.0531058218030118 1.0584065050890502e-24 2.958652416635342e-17 2.958652414472728e-17 2.1626139707283734e-26
1.0540936079674168 1.0602831433346056e-24 2.9666784012007093e-17 2.966678398989875e-17 2.2108348999883872e-26
1.058054026499678 1.067779079060527e-24 2.998877217048671e-17 2.998877214634449e-17 2.4142214667866006e-26
1.0590464539527713 1.0696503541722455e-24 3.006950526879744e-17 3.0069505244119427e-17 2.467801387552664e-26
1.06003981227728 1.0715205240243537e-24 3.01503323345731e-17 3.015033230934791e-17 2.5225190974508252e-26
1.0620293250338977 1.0752575046493584e-24 3.031226745219887e-17 3.031226742584426e-17 2.635460263727666e-26
1.0660195594769086 1.0827177276360134e-24 3.0637255187841603e-17 3.063725515908123e-17 2.8760372474017726e-26
1.070024785945596 1.0901590608702317e-24 3.0963720573356355e-17 3.096372054198081e-17 3.1375548225792475e-26
1.0740450607676866 1.0975808226306788e-24 3.1291648673221e-17 3.1291648639003596e-17 3.4217403568669627e-26
1.07808044048254 1.104982336735946e-24 3.1621024423738073e-17 3.1621024386433525e-17 3.730455269379822e-26
1.0861967418109137 1.1197088593822927e-24 3.2283680696198586e-17 3.22836806519021e-17 4.4296485691019746e-26
1.0902777775684922 1.1270027864532507e-24 3.261606643853037e-17 3.261606639028425e-17 4.824612080637086e-26
1.0943741465085532 1.1342732991236072e-24 3.294981394593306e-17 3.2949813893402107e-17 5.253095359077908e-26
1.1026131145906286 1.1487415149163719e-24 3.3621331078525754e-17 3.3621331016309897e-17 6.221586735448089e-26
1.1109141095355224 1.1631084370668115e-24 3.4298104704771777e-17 3.42981046311801e-17 7.359167276080765e-26
1.1192775983109025 1.1773557549222705e-24 3.4979609408592045e-17 3.497960932165601e-17 8.693602418659476e-26
1.1277040513999907 1.1914173140193587e-24 3.5663871048276196e-17 3.5663870945707083e-17 1.02569107560022e-25
1.1361939428280308 1.2053610960874903e-24 3.635290093092381e-17 3.635290081006418e-17 1.2085961879894155e-25
1.1447477501889525 1.2191824921767666e-24 3.7046565278074974e-17 3.70465651358434e-17 1.4223158070084475e-25
1.1533659546722406 1.2328845279457744e-24 3.77449594514541e-17 3.7744959284281876e-17 1.6717222509959853e-25
1.1707974979042381 1.2599748816890912e-24 3.915733314233213e-17 3.91573329122539e-17 2.3007823119845467e-25
1.1884924949847024 1.28652998665592e-24 4.0586891446644654e-17 4.0586891131558386e-17 3.1508627727866076e-25
1.2064549276569216 1.312757725533015e-24 4.2040233296748377e-17 4.2040232867354204e-17 4.293941874684388e-25
1.2246888378427687 1.3383722244233504e-24 4.3508299320766055e-17 4.3508298738434506e-17 5.823315495707207e-25
1.2431983285522175 1.3633139213893818e-24 4.498893579306403e-17 4.498893500711464e-17 7.859493991016083e-25
1.2619875648066055 1.3875739922983568e-24 4.648155619436976e-17 4.648155513863528e-17 1.0557344870107407e-24
1.3004222497298317 1.4336481894851008e-24 4.9487602597195895e-17 4.9487600718870434e-17 1.8783254616245724e-24
1.3400274889804893 1.4764185091355965e-24 5.251611874025785e-17 5.2516115459153474e-17 3.2811043761211822e-24
1.3808389325824078 1.5157308226784111e-24 5.555645660783547e-17 5.555645097790418e-17 5.6299312940246365e-24
1.4228933163050095 1.5517801312902565e-24 5.861003211815813e-17 5.861002262451206e-17 9.493646072109213e-24
1.466228494730424 1.5854345000374476e-24 6.170486306564452e-17 6.170484732487701e-17 1.5740767507016325e-23
1.5108834753276823 1.6160490997429442e-24 6.481193025544951e-17 6.48119045826958e-17 2.5672753723596034e-23
1.5568984535646726 1.6431034799293679e-24 6.790388709212158e-17 6.790384586101714e-17 4.1231104451354614e-23
1.6043148490894465 1.6666524301443765e-24 7.097478345667999e-17 7.097471813142783e-17 6.532525215170567e-23
1.6531753430134553 1.6867729023381936e-24 7.401929899893006e-17 7.401919701279007e-17 1.0198614000866101e-22
1.7035239163302658 1.703705389037823e-24 7.703927114166799e-17 7.703911421040464e-17 1.5693126334163908e-22
1.755405889504358 1.718809031991244e-24 8.008932092471208e-17 8.008908280036997e-17 2.381243421276791e-22
1.8088679632656115 1.731757415815284e-24 8.315021111073372e-17 8.314985467715912e-17 3.5643357461074713e-22
1.8639582606462262 1.742331524422044e-24 8.620578492578243e-17 8.62052584153876e-17 5.2651039484976805e-22
1.9207263702978936 1.7507028422813204e-24 8.925804469584934e-17 8.925727688653866e-17 7.678093106753692e-22
1.979223391128241 1.7572608396162227e-24 9.232099551858912e-17 9.231988969409752e-17 1.1058244916031915e-21
2.039501978296691 1.762469718454448e-24 9.541468655509782e-17 9.541311307456302e-17 1.5734805347882448e-21
2.1016163906111602 1.7676174953284622e-24 9.86077777064869e-17 9.860556481933594e-17 2.2128871509931453e-21
2.1656225393682647 1.7734542788750637e-24 1.0194646997156666e-16 1.0194339294966056e-16 3.0770219061189342e-21
2.231578038680979 1.7800397150624368e-24 1.0544140978759804e-16 1.0543717811761022e-16 4.231669987778773e-21
2.299542257339062 1.787825649749942e-24 1.0912794865316422e-16 1.091221911107377e-16 5.757542426513218e-21
2.369576372248914 1.7978010350672205e-24 1.1307895071024648e-16 1.1307119808639565e-16 7.752623850818589e-21
2.4417434235010123 1.8111323596202886e-24 1.17386904376132e-16 1.1737657012605681e-16 1.0334250075183601e-20
2.5161083711144245 1.8298123617484036e-24 1.222096029028737e-16 1.2219596115667162e-16 1.36417462020706e-20
2.5927381535095444 1.857096169382597e-24 1.2780930870282323e-16 1.2779147012781069e-16 1.7838575012578235e-20
2.6717017477616296 1.896862567102375e-24 1.3452198707405835e-16 1.3449887371424495e-16 2.3113359813393118e-20
2.753070231689431 1.9549449634637756e-24 1.4286349123454484e-16 1.4283380965416476e-16 2.968158038006347e-20
2.836916847834745 2.044554830263882e-24 1.5396244573470197e-16 1.5392465769963032e-16 3.778803507168543e-20
2.9233170693905177 2.194774458858159e-24 1.7030808007154084e-16 1.7026038069314226e-16 4.769937839853808e-20
2.967498994190263 2.3213118016549043e-24 1.8284938032500363e-16 1.827960460210881e-16 5.333430391554822e-20
3.0123486681368425 2.468866861636038e-24 1.9741145155315976e-16 1.9735189606143342e-16 5.955549172635358e-20
3.0578761833420214 2.7969725734475475e-24 2.2702701407844116e-16 2.269605817669009e-16 6.643231154031093e-20
3.1040917844459814 3.219259610994449e-24 2.6525280693932476e-16 2.65178843913836e-16 7.39630254887448e-20
3.127460860933648 3.664998547302214e-24 3.0425317800261098e-16 3.0417516406856523e-16 7.801393404579032e-20
3.1510058709225794 4.258547026630686e-24 3.561886634289882e-16 3.561064131782125e-16 8.225025077564042e-20
3.162844764501044 4.810702298667042e-24 4.038832033211527e-16 4.037987554320125e-16 8.444788914030147e-20
3.1747281389236908 5.452669791410306e-24 4.594996367555674e-16 4.594129427973107e-16 8.669395825673638e-20
3.1986289994194426 7.242788948036016e-24 6.149490481129956e-16 6.148577022993624e-16 9.134581363315243e-20
3.2227097969389145 1.1461278976792629e-23 9.804460836865414e-16 9.803497940056429e-16 9.628968089832545e-20
3.2348180950136065 1.5461219103117946e-23 1.3275871236948192e-15 1.3274881918763815e-15 9.893181843754974e-20
3.240889293275058 1.845160472941967e-23 1.5873320004918563e-15 1.5872316749024087e-15 1.003255894475334e-19
3.2469718861334385 2.1911047202994738e-23 1.8884743733553087e-15 1.8883726055120168e-15 1.0176784329147436e-19
3.2714166318528037 4.036226554855206e-23 3.5049419198965466e-15 3.504834179918548e-15 1.0773997799990119e-19
3.2744851364798273 4.15157607808954e-23 3.608489594519693e-15 3.60838114741612e-15 1.084471035736975e-19
3.2775565192852394 4.2702371550962854e-23 3.715109489855306e-15 3.715000331774916e-15 1.0915808039002804e-19
3.283707930232385 4.156152922067583e-23 3.6226424637943906e-15 3.62253202758538e-15 1.1043620901072516e-19
3.2898708863219004 3.7943071115007183e-23 3.313452635437331e-15 3.313341029891966e-15 1.1160554536519708e-19
3.29141343181113 3.7089738544839873e-23 3.240452367824577e-15 3.2403404684851733e-15 1.1189933940476928e-19
3.292184975758714 3.667043966713979e-23 3.2045701185358646e-15 3.2044580720800025e-15 1.1204645586258046e-19
3.295272960557952 3.4023931013611235e-23 2.976084904099961e-15 2.97597228422848e-15 1.1261987148180981e-19
3.3076538914384823 2.4855211799837266e-23 2.1822623530559624e-15 2.182147426821438e-15 1.149262345243929e-19
3.310756385682612 2.2989031883320966e-23 2.0203068717508323e-15 2.0201913635009323e-15 1.1550824989987947e-19
3.313861789986515 2.1267146398380006e-23 1.87073833225774e-15 1.8706222398144974e-15 1.1609244324250777e-19
3.3200813396944477 1.8852511037252425e-23 1.6614503230708828e-15 1.6613329768938724e-15 1.17346177010537e-19
3.345076488085796 1.4546033954277883e-23 1.2915763461729027e-15 1.2914534196749772e-15 1.2292649792549908e-19
3.3482140837626964 1.470773057069127e-23 1.3071586988704807e-15 1.3070350166628905e-15 1.2368220759036435e-19
3.3513546224236106 1.4871212310829462e-23 1.3229279497307747e-15 1.322803508049338e-15 1.2444168143665808e-19
3.3576445397418455 1.6065145929117753e-23 1.4318213210239028e-15 1.43169529251598e-15 1.260285079231317e-19
3.3702598118196083 2.0468051686256633e-23 1.831088435399755e-15 1.8309590776130345e-15 1.2935778672034614e-19
3.382922481734668 2.147148297064305e-23 1.9280732094563005e-15 1.927940603422105e-15 1.326060341950235e-19
3.389271646505754 2.199130948194233e-23 1.9784583038137647e-15 1.9783240488919406e-15 1.3425492182425308e-19
3.395632727569191 2.2551514346626548e-23 2.032665209974455e-15 2.0325292556444383e-15 1.3595433001670614e-19
3.421196662673239 2.524146669552438e-23 2.2922504118710598e-15 2.292107408693372e-15 1.43003177687517e-19
3.4276182099114902 2.4700170443919277e-23 2.2473039990737717e-15 2.2471594094522045e-15 1.4458962156812373e-19
3.4340518103208963 2.2326917202200628e-23 2.0351903655579394e-15 2.0350442689469264e-15 1.460966110130235e-19
3.4469541582030403 1.8946909077793348e-23 1.7335776999379175e-15 1.7334286975663782e-15 1.4900237153910917e-19
3.472904465399547 1.800048771351621e-23 1.6593826386095645e-15 1.6592269607623655e-15 1.5567784719910484e-19
3.4990501388274233 1.6552598920354157e-23 1.5373961553029429e-15 1.5372336149815906e-15 1.6254032135234516e-19
3.5253949054701885 1.139755824294084e-23 1.0665691697395308e-15 1.0663999131721972e-15 1.6925656733357469e-19
3.5519380250092896 6.552008848970321e-24 6.177450695964934e-16 6.175690220650169e-16 1.760475314765156e-19
3.578680990867387 4.6314651257122956e-24 4.3995759334969874e-16 4.3977409499253377e-16 1.8349835716498923e-19
3.605625307711299 3.85543826178259e-24 3.6899780220134636e-16 3.6880643084664075e-16 1.9137135470551255e-19
3.660119384959845 3.290997663511313e-24 3.1973653071317397e-16 3.195285048929637e-16 2.0802582021023788e-19
3.715437065384467 2.892007839643554e-24 2.85219233410175e-16 2.8499348253786664e-16 2.2575087230838275e-19
3.8285932144167436 2.6936096674746643e-24 2.737431878103259e-16 2.734787462617378e-16 2.644415485881371e-19
3.94519561050918 2.6602008116858592e-24 2.7858157919115813e-16 2.782740310057129e-16 3.0754818544519763e-19
4.06534921144712 2.694806816194737e-24 2.908003517038803e-16 2.904450835963485e-16 3.5526810753178344e-19
4.189162171576248 2.769027514518202e-24 3.079100593016275e-16 3.075021116310128e-16 4.0794767061475876e-19
4.316745939156006 2.8723066582453212e-24 3.291218587922169e-16 3.286561598330906e-16 4.656989591262971e-19
4.448215356677963 3.001134829473629e-24 3.5435677881228894e-16 3.538286892706414e-16 5.280895416475989e-19
4.58368876423945 3.1560054152437445e-24 3.8399210376256564e-16 3.833965952049022e-16 5.955085576634991e-19
4.723288106065518 3.34037541289298e-24 4.188023871116535e-16 4.181336934827091e-16 6.686936289445828e-19
4.867139040275056 3.561082717105429e-24 4.600714117960519e-16 4.593250611338089e-16 7.46350662243086e-19
4.940699165968905 3.693598751764173e-24 4.844038193947161e-16 4.836166428325972e-16 7.871765621189275e-19
5.015371051989984 3.830860764139057e-24 5.099984655898135e-16 5.091691789813599e-16 8.292866084537531e-19
5.091171501069577 3.9974969744287316e-24 5.402257780853799e-16 5.393522704111694e-16 8.735076742105282e-19
5.129500256944802 4.083032609608357e-24 5.559392507506671e-16 5.550431444422131e-16 8.96106308453988e-19
5.168117569889187 4.1721526191534134e-24 5.723504184511024e-16 5.714312152100369e-16 9.19203241065639e-19
5.20702561229733 4.281002667279648e-24 5.917041909902044e-16 5.907600297226947e-16 9.44161267509493e-19
5.246226572918644 4.392613908583751e-24 6.11701447649038e-16 6.107319164555972e-16 9.695311934409042e-19
5.265937586045735 4.449482485741321e-24 6.219488112016528e-16 6.209664406068646e-16 9.82370594788197e-19
5.285722656980489 4.507074847881769e-24 6.323660929019732e-16 6.313707799745333e-16 9.953129274400043e-19
5.305582063971359 4.565402662511533e-24 6.429564496270952e-16 6.419480914654849e-16 1.0083581616104903e-18
5.3255160863122235 4.627979236989774e-24 6.542180704077863e-16 6.531964844903964e-16 1.0215859173899561e-18
5.365609099470188 4.7832006768237956e-24 6.812508619315576e-16 6.802018891396708e-16 1.0489727918869515e-18
5.406003951863644 4.944268431631047e-24 7.09492539500261e-16 7.084157255490165e-16 1.0768139512445635e-18
5.446702915881641 5.111463651532846e-24 7.390067371908511e-16 7.379016272090186e-16 1.1051099818325445e-18
5.487708281020852 5.291940807935534e-24 7.708598527027465e-16 7.697258963252047e-16 1.133956377542042e-18
5.529022354014368 5.541714084429955e-24 8.133208281228146e-16 8.121567293167615e-16 1.1640988060528578e-18
5.570647458961463 5.8060538519164535e-24 8.585313679583661e-16 8.573366200771178e-16 1.1947478812483282e-18
5.612585937458331 6.086004915753317e-24 9.067023381150243e-16 9.054764329849551e-16 1.22590513006913e-18
5.654840148729818 6.3934558596085915e-24 9.596777745817196e-16 9.584200813880225e-16 1.2576931936970515e-18
5.67608639626678 6.602319670679319e-24 9.947523607056461e-16 9.934780524094456e-16 1.2743082962006499e-18
5.686739436050992 6.709951031685414e-24 1.0128662807944866e-15 1.0115836112344576e-15 1.282669560028968e-18
5.6974124697621304 6.819783266846676e-24 1.031377535525828e-15 1.0300864688345535e-15 1.2910666912745088e-18
5.718818669136295 7.046261899980859e-24 1.0696323778926129e-15 1.0683244091607953e-15 1.307968731817699e-18
5.740305295436557 7.295754187384317e-24 1.1116667520384035e-15 1.110341632729683e-15 1.3251193087205902e-18
5.7835210386641895 7.942095149551142e-24 1.2192614384125742e-15 1.2179007612004106e-15 1.360677212163548e-18
5.827062130521658 8.686073134288442e-24 1.3435151357654129e-15 1.3421180138311674e-15 1.3971219342455906e-18
5.8489554468988025 9.207422875098649e-24 1.4295055176831099e-15 1.4280888204863502e-15 1.416697196760119e-18
5.870931020387893 9.766684223645002e-24 1.5220312070998e-15 1.5205947418226687e-15 1.4364652771314434e-18
5.892989160043636 1.0366904899204734e-23 1.6216390349064962e-15 1.6201826077777344e-15 1.4564271287614855e-18
5.915130176081913 1.1049274660381794e-23 1.7348722848147943e-15 1.7333951875294705e-15 1.4770972853243582e-18
5.95966208400165 1.2955989414673135e-23 2.0495647978481445e-15 2.048041280229657e-15 1.5235176184878218e-18
6.004529249263818 1.5702507513323414e-23 2.5027496402968156e-15 2.50117421487797e-15 1.5754254188463939e-18
6.027089341400364 1.7611035183047226e-23 2.8174871692012603e-15 2.8158820945844513e-15 1.6050746168094237e-18
6.049734195844842 1.9865806695549952e-23 3.1901560824705894e-15 3.1885196571833813e-15 1.6364252872091378e-18
6.095279466722835 2.6377380846140868e-23 4.267708281290875e-15 4.2659960098669186e-15 1.7122714239577155e-18
6.141167624020661 3.639568098929502e-23 5.932943799817799e-15 5.931134582799815e-15 1.809217017985908e-18
6.164241091010745 4.2793310634314833e-23 7.002045612111301e-15 7.000176284394608e-15 1.869327716690945e-18
6.187401249150058 5.0079658536821577e-23 8.225059962401515e-15 8.223128689462393e-15 1.931272939119651e-18
6.1990139391386085 5.363756261467182e-23 8.825942230515819e-15 8.823979390245148e-15 1.9628402706740757e-18
6.204828454712694 5.551159695902791e-23 9.14287818288006e-15 9.140899375011922e-15 1.9788078681409276e-18
6.210648424152782 5.687987597151618e-23 9.377023813730092e-15 9.375031221958728e-15 1.9925917713636154e-18
6.233982942956859 6.152872758616948e-23 1.0181528392271067e-14 1.017948696999394e-14 2.041422277133209e-18
6.239830258556775 6.212321255478195e-23 1.028954367637896e-14 1.028749490258379e-14 2.0487737951682167e-18
6.245683058788269 6.217523914901317e-23 1.0307820314770256e-14 1.0305764168907752e-14 2.056145862506855e-18
6.257405133728602 6.20486295286887e-23 1.0306136752996927e-14 1.0304067362989643e-14 2.069390007285327e-18
6.269149208991335 6.113582363826844e-23 1.0173580057336621e-14 1.0171504166658103e-14 2.0758906785170264e-18
6.280915325867298 5.884514902109679e-23 9.810768741790082e-15 9.808694716483415e-15 2.0740253066635413e-18
6.304513850009849 5.319566254032094e-23 8.90219818427051e-15 8.900135486492771e-15 2.0626977777370248e-18
6.32820103803542 4.619299616268864e-23 7.759358772607927e-15 7.75731548620439e-15 2.0432864035393344e-18
6.3519772230701035 3.977135778043767e-23 6.705771999883087e-15 6.703745563222891e-15 2.0264366601984385e-18
6.375842739491607 3.436874002960383e-23 5.816619309703111e-15 5.814607119244385e-15 2.012190458725695e-18
6.399797922933955 3.0040085758681335e-23 5.103132707229722e-15 5.101125044714101e-15 2.0076625156203973e-18
6.42384311029221 2.64412116633001e-23 4.5086415746659745e-15 4.506636503222073e-15 2.0050714439013002e-18
6.447978639727206 2.3819785760192605e-23 4.076907652407057e-15 4.0748975199200226e-15 2.0101324870323205e-18
6.472204850670314 2.16362927012734e-23 3.717102488645758e-15 3.715085734487156e-15 2.0167541586022007e-18
6.496522083828205 2.0218515868703414e-23 3.486579926002999e-15 3.4845502821968815e-15 2.029643806118454e-18
