Dust emission spectrum from A.P. Jones, M. Kohler, N. Ysard, M. Bocchio, and L. Verstraete (2017), A&A, 602A, 46J 
inside the DustPedia framework.

lambda    nu*dP/dnu     j_nu    j_nu(carb.) j_nu(sil)
 (um)   (erg s-1 H-1) (Jy cm2 sr-1 H-1)
0.9927057738263894 2.3613422851984466e-24 6.22227104306214e-17 6.222271043055636e-17 6.504040256049431e-29
1.0001793341362166 2.40035408985164e-24 6.372687488878117e-17 6.372687488870282e-17 7.836469782077772e-29
1.0077091589558085 2.439310262437893e-24 6.524867272840264e-17 6.524867272830833e-17 9.42984695303281e-29
1.0114953028030835 2.458762688963471e-24 6.601610812097298e-17 6.60161081208696e-17 1.0339240164387154e-28
1.0152956718711033 2.478195465359748e-24 6.678785964712851e-17 6.678785964701518e-17 1.1332703918582078e-28
1.0229392996569957 2.5169754091940795e-24 6.834366575590539e-17 6.834366575576936e-17 1.360225624555688e-28
1.0267826658714554 2.5362755457002268e-24 6.912647252270886e-17 6.912647252255991e-17 1.4895517190480125e-28
1.0306404723013447 2.555547498804785e-24 6.991342578605528e-17 6.99134257858922e-17 1.6306496286010085e-28
1.03451277320114 2.5747894087020374e-24 7.07044916860816e-17 7.070449168590318e-17 1.7845390546290092e-28
1.0383996230291617 2.5939994259007522e-24 7.14996359396107e-17 7.149963593941547e-17 1.9523231859059202e-28
1.0403485208654093 2.6035918996799457e-24 7.18987266216913e-17 7.189872662148714e-17 2.041794908853327e-28
1.0423010764483396 2.613175711578813e-24 7.229882384826052e-17 7.229882384804703e-17 2.1351951067058076e-28
1.0462171883269815 2.632316437930051e-24 7.310202030656441e-17 7.310202030633096e-17 2.334444661242827e-28
1.0471985131304309 2.6370958502533966e-24 7.330344160499898e-17 7.330344160476031e-17 2.3869770114887793e-28
1.048180758391296 2.64187289826443e-24 7.350511066206587e-17 7.35051106618218e-17 2.4406423837074854e-28
1.0501480137395462 2.6514197885031847e-24 7.390918981009733e-17 7.390918980984216e-17 2.5514658041215244e-28
1.0521189612883777 2.660956883418436e-24 7.431425325160253e-17 7.431425325133583e-17 2.66710672478727e-28
1.0531058218030118 2.665714365073883e-24 7.451694798136012e-17 7.451694798108745e-17 2.7267995633030584e-28
1.0540936079674168 2.6704453233511873e-24 7.471921544897434e-17 7.471921544869557e-17 2.787785107241572e-28
1.058054026499678 2.689342277176161e-24 7.553067335768824e-17 7.553067335738371e-17 3.045062941838525e-28
1.0590464539527713 2.694059657605621e-24 7.573413195521831e-17 7.573413195490703e-17 3.112853554434158e-28
1.06003981227728 2.698774239718245e-24 7.593782704029718e-17 7.593782703997897e-17 3.1820893862601286e-28
1.0620293250338977 2.7081948991877716e-24 7.634592434082156e-17 7.634592434048904e-17 3.3250146181990376e-28
1.0660195594769086 2.7270014333540464e-24 7.71649310607434e-17 7.716493106038046e-17 3.629536845214315e-28
1.070024785945596 2.745760136913437e-24 7.798765583160039e-17 7.798765583120436e-17 3.960675875953294e-28
1.0740450607676866 2.764469280661401e-24 7.88140606274753e-17 7.881406062704324e-17 4.320638524437171e-28
1.07808044048254 2.783127149229126e-24 7.964410709053085e-17 7.964410709005964e-17 4.711803932128756e-28
1.0861967418109137 2.8202492975711385e-24 8.13140193038155e-17 8.131401930325568e-17 5.598198221056395e-28
1.0902777775684922 2.838635237988433e-24 8.215162964091278e-17 8.215162964030287e-17 6.09916636113042e-28
1.0943741465085532 2.856961874377274e-24 8.299266348250421e-17 8.299266348183992e-17 6.6428417754337805e-28
1.1026131145906286 2.893430719616083e-24 8.468484068330324e-17 8.468484068251599e-17 7.8723637059843045e-28
1.1109141095355224 2.9296429598159852e-24 8.639022620862844e-17 8.639022620769669e-17 9.317589121315954e-28
1.1192775983109025 2.9655523563427193e-24 8.810749229526351e-17 8.810749229416209e-17 1.101414704869923e-27
1.1277040513999907 3.0009921134189038e-24 8.983166056971254e-17 8.983166056841222e-17 1.3003164178854986e-27
1.1361939428280308 3.0361334150997266e-24 9.15677945890635e-17 9.15677945875303e-17 1.5332042594882388e-27
1.1447477501889525 3.0709645402258613e-24 9.331555286936962e-17 9.331555286756409e-17 1.8055351649581283e-27
1.1533659546722406 3.1054930222879553e-24 9.507517171809948e-17 9.50751717159759e-17 2.1235857506820095e-27
1.1707974979042381 3.173753562392337e-24 9.863349449288953e-17 9.863349448996277e-17 2.926753904060745e-27
1.1884924949847024 3.240656459731231e-24 1.0223482803448735e-16 1.0223482803047349e-16 4.0138594004641294e-27
1.2064549276569216 3.30672483863799e-24 1.0589576504533593e-16 1.0589576503985783e-16 5.478063434443157e-27
1.2246888378427687 3.3712371032291924e-24 1.0959342273541653e-16 1.0959342272797619e-16 7.440375179459367e-27
1.2431983285522175 3.434042287691521e-24 1.133223284584174e-16 1.1332232844835994e-16 1.005744406376965e-26
1.2619875648066055 3.495116853144154e-24 1.170809422178741e-16 1.170809422043431e-16 1.353101940043044e-26
1.3004222497298317 3.611058747705927e-24 1.246488793919381e-16 1.2464887936778608e-16 2.41520251043401e-26
1.3400274889804893 3.718608646666281e-24 1.3227068885177494e-16 1.322706888094435e-16 4.233139930642728e-26
1.3808389325824078 3.817367277456317e-24 1.3991890666405565e-16 1.3991890659116746e-16 7.288816946936067e-26
1.4228933163050095 3.90781467463459e-24 1.4759638880136052e-16 1.4759638867800767e-16 1.2335283948581204e-25
1.466228494730424 3.9921266900660295e-24 1.5537294712926373e-16 1.5537294692397977e-16 2.0528392847725005e-25
1.5108834753276823 4.0686639553308336e-24 1.6317447566890655e-16 1.6317447533280874e-16 3.3609778033893334e-25
1.5568984535646726 4.136099847583329e-24 1.7093096112492736e-16 1.709309605830128e-16 5.4191456269572625e-25
1.6043148490894465 4.19455693741726e-24 1.786261880073672e-16 1.7862618714530095e-16 8.620662409177557e-25
1.6531753430134553 4.2442123277256575e-24 1.8624535695670269e-16 1.8624535560523454e-16 1.3514681135528076e-24
1.7035239163302658 4.2856552955581166e-24 1.9379158066799842e-16 1.9379157857950226e-16 2.0884961850214927e-24
1.755405889504358 4.322293453632895e-24 2.0140081946029165e-16 2.014008162772362e-16 3.1830554387693052e-24
1.8088679632656115 4.353284800821167e-24 2.0902266501513174e-16 2.0902266022889216e-16 4.7862396612891345e-24
1.8639582606462262 4.378058881048045e-24 2.1661434520461493e-16 2.1661433810131644e-16 7.103298476949172e-24
1.9207263702978936 4.397028612800574e-24 2.2417863670048013e-16 2.2417862629148114e-16 1.0408999038385433e-23
1.979223391128241 4.411155764759732e-24 2.317483451569554e-16 2.3174833009043735e-16 1.506651803088692e-23
2.039501978296691 4.421591537467822e-24 2.393713583868698e-16 2.3937133683763283e-16 2.154923694766798e-23
2.1016163906111602 4.431561022588975e-24 2.472177297198474e-16 2.472176992513689e-16 3.0468478452638425e-23
2.1656225393682647 4.442934480515209e-24 2.554007126086112e-16 2.5540067000708264e-16 4.26015285640825e-23
2.231578038680979 4.455846312863766e-24 2.6394395195207554e-16 2.6394389302743397e-16 5.892464152673076e-23
2.299542257339062 4.4714173305070055e-24 2.729329903722358e-16 2.729329097218833e-16 8.065035253480456e-23
2.369576372248914 4.492125504536819e-24 2.8254786186212595e-16 2.8254775259189474e-16 1.0927023126453503e-22
2.4417434235010123 4.520897917015123e-24 2.9301790598571755e-16 2.930177593892406e-16 1.4659647703438491e-22
2.5161083711144245 4.562747232332638e-24 3.0473699875803356e-16 3.04736803943446e-16 1.9481458767317707e-22
2.5927381535095444 4.625876211024838e-24 3.183626407847677e-16 3.183623842517186e-16 2.5653304909746005e-22
2.6717017477616296 4.720081415822054e-24 3.3473944935170863e-16 3.3473911453103615e-16 3.3482067252743937e-22
2.753070231689431 4.8601128377458484e-24 3.55167383619835e-16 3.5516695036092084e-16 4.332589141060949e-22
2.836916847834745 5.0793718757423036e-24 3.82495252858742e-16 3.8249469684790585e-16 5.560108361852565e-22
2.9233170693905177 5.4513996141724375e-24 4.230126691356976e-16 4.230119613720524e-16 7.077636452259909e-22
2.967498994190263 5.767281418508994e-24 4.542878870397656e-16 4.542870920605453e-16 7.949792202069355e-22
3.0123486681368425 6.136213087034369e-24 4.906537291963255e-16 4.906528374017564e-16 8.91794569121374e-22
3.0578761833420214 6.961395489442747e-24 5.650483836669463e-16 5.650473842812034e-16 9.993857429939766e-22
3.1040917844459814 8.024710427047618e-24 6.612007799495604e-16 6.611996619686136e-16 1.1179809469700003e-21
3.127460860933648 9.149331255490458e-24 7.59540031231572e-16 7.595388491398519e-16 1.1820917201352838e-21
3.1510058709225794 1.0647670222558362e-23 8.90580613878144e-16 8.90579364505277e-16 1.2493728669742185e-21
3.162844764501044 1.2042276262660102e-23 1.0110110354550677e-15 1.0110097510780751e-15 1.2843769920810828e-21
3.1747281389236908 1.3664069406328096e-23 1.1514790311897258e-15 1.1514777109720679e-15 1.3202176579291869e-21
3.1986289994194426 1.8187606338719115e-23 1.5442188479732005e-15 1.5442174533118733e-15 1.3946613269839091e-21
3.2227097969389145 2.885022749536333e-23 2.4679699899609685e-15 2.4679685158277447e-15 1.474133223153827e-21
3.2348180950136065 3.896156457724947e-23 3.3454587964107956e-15 3.345457279657012e-15 1.5167537838940015e-21
3.240889293275058 4.652105293677323e-23 4.002056032848818e-15 4.002054493563924e-15 1.539284894050526e-21
3.2469718861334385 5.526620157876292e-23 4.763296086547504e-15 4.763294523913607e-15 1.5626338961419197e-21
3.2714166318528037 1.0191421585342958e-22 8.849934524819674e-15 8.849932865153476e-15 1.6596661970304435e-21
3.2744851364798273 1.0483036554865992e-22 9.11170302932544e-15 9.111701358143274e-15 1.6711821631074945e-21
3.2775565192852394 1.0783027405260557e-22 9.381241834506512e-15 9.381240151738685e-15 1.6827678243452816e-21
3.283707930232385 1.0494550224291809e-22 9.147402416085652e-15 9.147400712510804e-15 1.7035748516831818e-21
3.2898708863219004 9.579670557314162e-23 8.365634020120092e-15 8.365632297524636e-15 1.722595456491059e-21
3.29141343181113 9.363919337831797e-23 8.181059177246995e-15 8.1810574498701e-15 1.7273768949094263e-21
3.292184975758714 9.257906866922169e-23 8.090334333381821e-15 8.090332603610254e-15 1.7297715680626324e-21
3.295272960557952 8.588741763847767e-23 7.512601850260816e-15 7.512600111164398e-15 1.739096419273678e-21
3.3076538914384823 6.270552891227772e-23 5.505481754720827e-15 5.5054799780838494e-15 1.77663697778048e-21
3.310756385682612 5.798743725459891e-23 5.096013549212702e-15 5.09601176309193e-15 1.7861207699062496e-21
3.313861789986515 5.363426920451952e-23 4.7178724142872514e-15 4.717870618643011e-15 1.7956442381177868e-21
3.3200813396944477 4.752948280660279e-23 4.188719179550258e-15 4.188717363434524e-15 1.8161157350386383e-21
3.345076488085796 3.6639487947950745e-23 3.2533057545588268e-15 3.2533038469990472e-15 1.9075597806700825e-21
3.3482140837626964 3.7047953640156594e-23 3.2926599140036393e-15 3.2926579940169686e-15 1.9199866694421746e-21
3.3513546224236106 3.7460935433420554e-23 3.332486785347213e-15 3.332484852864886e-15 1.9324823275598525e-21
3.3576445397418455 4.0478666759036085e-23 3.607699448727776e-15 3.607697490090484e-15 1.9586372918269066e-21
3.3702598118196083 5.1609071989387874e-23 4.616989263562128e-15 4.616987249907427e-15 2.013654699723918e-21
3.382922481734668 5.41444213299467e-23 4.862002701467714e-15 4.862000634106656e-15 2.0673610600809656e-21
3.389271646505754 5.545790842504758e-23 4.989296318428597e-15 4.9892942237571365e-15 2.0946714611008995e-21
3.395632727569191 5.687324591244178e-23 5.126230840539336e-15 5.126228717696796e-15 2.1228425410221413e-21
3.421196662673239 6.366905700102855e-23 5.781970750532005e-15 5.781968510517098e-15 2.240014906894433e-21
3.4276182099114902 6.229993344770439e-23 5.66825601049741e-15 5.668253744012222e-15 2.266485189228838e-21
3.4340518103208963 5.629972750984449e-23 5.131951803909555e-15 5.131949512255871e-15 2.291653682956942e-21
3.4469541582030403 4.775446890291199e-23 4.3693713851984474e-15 4.369369044930427e-15 2.3402680219974535e-21
3.472904465399547 4.536044463532979e-23 4.181571938795725e-15 4.181569486357442e-15 2.4524382847316794e-21
3.4990501388274233 4.169845510794953e-23 3.872929252590284e-15 3.872926684328131e-15 2.568262152532671e-21
3.5253949054701885 2.866354985703777e-23 2.682298955720906e-15 2.682296273733256e-15 2.6819876499396906e-21
3.5519380250092896 1.641238988669027e-23 1.5474144138849274e-15 1.5474116163817342e-15 2.797503192994232e-21
3.578680990867387 1.1555532745136399e-23 1.0976967845875692e-15 1.0976938596488149e-15 2.924938754552513e-21
3.605625307711299 9.591890498101336e-24 9.180244300213251e-16 9.180213696937433e-16 3.0603275814832532e-21
3.660119384959845 8.161496482144521e-24 7.929293294740419e-16 7.929259803453393e-16 3.3491287025662352e-21
3.715437065384467 7.150019229486568e-24 7.051581864845568e-16 7.051545266361781e-16 3.659848378668258e-21
3.8285932144167436 6.644273444091672e-24 6.752368820291424e-16 6.752325314131095e-16 4.350616032989585e-21
3.94519561050918 6.558568760543261e-24 6.8682651118659185e-16 6.868213709548676e-16 5.140231723954575e-21
4.06534921144712 6.648825963697494e-24 7.174840574996532e-16 7.174780182056686e-16 6.0392939849698255e-21
4.189162171576248 6.84457030728537e-24 7.61101880772425e-16 7.610948183912927e-16 7.062381132313948e-21
4.316745939156006 7.120755510015091e-24 8.159283002507744e-16 8.159200783293475e-16 8.221921426965258e-21
4.448215356677963 7.470491224834523e-24 8.82072734813494e-16 8.8206321225847e-16 9.522555024030281e-21
4.58368876423945 7.897372508472856e-24 9.60875627487139e-16 9.608646418164914e-16 1.0985670647347963e-20
4.723288106065518 8.412893703146435e-24 1.0547736496308621e-15 1.0547610074294997e-15 1.2642201362414373e-20
4.867139040275056 9.037616548360394e-24 1.167608094218955e-15 1.167593604561967e-15 1.4489656988170297e-20
4.940699165968905 9.413655916139433e-24 1.23457126415467e-15 1.2345557655869782e-15 1.5498567691805495e-20
5.015371051989984 9.807496613258704e-24 1.3056617120782599e-15 1.3056451445352614e-15 1.6567542998506814e-20
5.091171501069577 1.0281932865555674e-23 1.3895107908894013e-15 1.389493073742123e-15 1.771714727849939e-20
5.129500256944802 1.0527335816256794e-23 1.433385364671834e-15 1.4333670472413108e-15 1.8317430523239064e-20
5.168117569889187 1.0783617711182395e-23 1.4793342125304009e-15 1.479315273940473e-15 1.8938589927790174e-20
5.20702561229733 1.1091665486867308e-23 1.5330485551440275e-15 1.5330289487018266e-15 1.9606442200973337e-20
5.246226572918644 1.1408694582925197e-23 1.5887385364153552e-15 1.5887182413070603e-15 2.0295108295107513e-20
5.265937586045735 1.1570672953334587e-23 1.617349053781159e-15 1.6173284063341928e-15 2.0647446965816602e-20
5.285722656980489 1.1735013125410632e-23 1.6464835066488692e-15 1.6464625014162874e-15 2.1005232582016017e-20
5.305582063971359 1.1901755487979965e-23 1.67615236126219e-15 1.6761309927127435e-15 2.1368549446795007e-20
5.3255160863122235 1.2079798382443679e-23 1.7076183759669847e-15 1.7075966367848785e-15 2.173918210662332e-20
5.365609099470188 1.2513672364468429e-23 1.7822689575893107e-15 1.782246446486963e-15 2.2511102347066795e-20
5.406003951863644 1.2964727702739179e-23 1.860412254904895e-15 1.86038894708695e-15 2.3307817944868225e-20
5.446702915881641 1.3433772570998108e-23 1.9422320322829876e-15 1.94220790214436e-15 2.4130138628121523e-20
5.487708281020852 1.3939021647669735e-23 2.030452071200488e-15 2.0304270898588273e-15 2.4981341661180884e-20
5.529022354014368 1.4622460042221965e-23 2.1460420240998554e-15 2.1460161423350244e-15 2.588176483069709e-20
5.570647458961463 1.5345654084657175e-23 2.2691359276951803e-15 2.269109115292117e-15 2.6812403063098613e-20
5.612585937458331 1.6111363889421215e-23 2.4002956801673895e-15 2.400267905852275e-15 2.777431511476635e-20
5.654840148729818 1.6949843491162722e-23 2.544224663201682e-15 2.5441958909853643e-15 2.877221631829439e-20
5.67608639626678 1.7510068498643572e-23 2.6381912485238832e-15 2.6381619488871463e-15 2.929963673667538e-20
5.686739436050992 1.7798604725782203e-23 2.6866971885197204e-15 2.686667621696286e-15 2.9566823434415574e-20
5.6974124697621304 1.8092931624538115e-23 2.7362516518771603e-15 2.7362218155203518e-15 2.9836356809578494e-20
5.718818669136295 1.8699501926117045e-23 2.8386104568004217e-15 2.838580074248393e-15 3.0382552027251256e-20
5.740305295436557 1.9365315175944508e-23 2.9507267474920786e-15 2.9506958050701183e-15 3.094242196002508e-20
5.7835210386641895 2.1073502952747606e-23 3.2351802690264685e-15 3.2351481444568528e-15 3.212456961661337e-20
5.827062130521658 2.303318074073548e-23 3.5626486758257716e-15 3.562615314820592e-15 3.3361005178682323e-20
5.8489554468988025 2.4393742192488383e-23 3.787269199442282e-15 3.787235161143864e-15 3.403829841953042e-20
5.870931020387893 2.585150433248059e-23 4.028674977455819e-15 4.0286402474733376e-15 3.4729982481759594e-20
5.892989160043636 2.74142160152564e-23 4.288257993483562e-15 4.288222557072504e-15 3.5436411057477686e-20
5.915130176081913 2.918659183530453e-23 4.582654592235647e-15 4.582618416951037e-15 3.6175284611050604e-20
5.95966208400165 3.4111448895363484e-23 5.396239732980425e-15 5.396201874061864e-15 3.7858918560490786e-20
6.004529249263818 4.1174596421337726e-23 6.562627420839185e-15 6.562587613234473e-15 3.980760470823269e-20
6.027089341400364 4.606852738926232e-23 7.370235961381155e-15 7.370195007436413e-15 4.09539447396352e-20
6.049734195844842 5.184323339510438e-23 8.325260025175943e-15 8.325217835389162e-15 4.218978678236874e-20
6.095279466722835 6.848645987696207e-23 1.1080714710762052e-14 1.1080669430609185e-14 4.5280152869452474e-20
6.141167624020661 9.405005018948912e-23 1.533131533679515e-14 1.533126593338009e-14 4.940341506254303e-20
6.164241091010745 1.1036963940426398e-22 1.805920686774896e-14 1.805915486006154e-14 5.200768742492427e-20
6.187401249150058 1.2894588419915728e-22 2.1178012399248745e-14 2.1177957618061194e-14 5.478118754582175e-20
6.1990139391386085 1.3801998952438374e-22 2.2710883843655487e-14 2.271082764073621e-14 5.620291928554951e-20
6.204828454712694 1.4279846344784167e-22 2.3519210895152217e-14 2.351915396323553e-14 5.693191668895879e-20
6.210648424152782 1.462927765908384e-22 2.411733194629225e-14 2.411727439087692e-14 5.755541532164818e-20
6.233982942956859 1.5817678972547976e-22 2.6174464169323545e-14 2.6174404381443943e-14 5.978787960641384e-20
6.239830258556775 1.5970502017101118e-22 2.6452137821068127e-14 2.645207769417346e-14 6.012689466953565e-20
6.245683058788269 1.598545076883166e-22 2.6501732270110314e-14 2.650167180216401e-14 6.046794630862696e-20
6.257405133728602 1.595673776917047e-22 2.650377983042254e-14 2.6503718747991707e-14 6.108243083240274e-20
6.269149208991335 1.5728217954659643e-22 2.6173244261455922e-14 2.617318287976183e-14 6.138169409029238e-20
6.280915325867298 1.5149394011919982e-22 2.5257341293489032e-14 2.525728000490534e-14 6.128858369800787e-20
6.304513850009849 1.371990678763216e-22 2.2960016561621482e-14 2.2959955820582283e-14 6.074103920979439e-20
6.32820103803542 1.1946364936940349e-22 2.0067139885829067e-14 2.0067080111822446e-14 5.977400662730255e-20
6.3519772230701035 1.0320293952148829e-22 1.740084877085149e-14 1.7400789868486146e-14 5.890236534351991e-20
6.375842739491607 8.95251843928343e-23 1.5151382209401702e-14 1.5151324041723278e-14 5.816767842790068e-20
6.399797922933955 7.858505331192842e-23 1.3349827263379192e-14 1.3349769421535614e-14 5.784184357622344e-20
6.42384311029221 6.949526091511402e-23 1.1850032691165867e-14 1.1849975070855442e-14 5.762031042667115e-20
6.447978639727206 6.289535847355731e-23 1.0764940157029246e-14 1.0764882407189821e-14 5.774983942548519e-20
6.472204850670314 5.740697560546587e-23 9.86248498459926e-15 9.862427023726715e-15 5.796087254250571e-20
6.496522083828205 5.387021755434355e-23 9.289644222854299e-15 9.289585752166485e-15 5.847068781390694e-20
