Dust emission spectrum from A.P. Jones, M. Kohler, N. Ysard, M. Bocchio, and L. Verstraete (2017), A&A, 602A, 46J 
inside the DustPedia framework.

lambda    nu*dP/dnu     j_nu    j_nu(carb.) j_nu(sil)
 (um)   (erg s-1 H-1) (Jy cm2 sr-1 H-1)
0.9927057738263894 8.981674666437254e-21 2.3667222894998747e-13 2.366720384112785e-13 1.9053870891663197e-19
1.0001793341362166 9.132245849253585e-21 2.4245151627814407e-13 2.424512870584222e-13 2.2921972193121575e-19
1.0077091589558085 9.283494520717388e-21 2.483225299732163e-13 2.4832225459059843e-13 2.7538261793936374e-19
1.0114953028030835 9.359367900630149e-21 2.512926709215829e-13 2.51292369232566e-13 3.0168901697351173e-19
1.0152956718711033 9.435404797583949e-21 2.542860319710096e-13 2.5428570157391994e-13 3.303970896475667e-19
1.0229392996569957 9.587887785288811e-21 2.603408025796805e-13 2.603404067060237e-13 3.958736568144605e-19
1.0267826658714554 9.664162049828695e-21 2.633978131930657e-13 2.633973800679398e-13 4.331251258973757e-19
1.0306404723013447 9.74058941567737e-21 2.6647830867706204e-13 2.664778349544854e-13 4.737225766085778e-19
1.03451277320114 9.817168470229814e-21 2.6958239929770965e-13 2.6958188134658987e-13 5.179511197372243e-19
1.0383996230291617 9.893897901421171e-21 2.727101983569823e-13 2.7270963223823536e-13 5.66118746871651e-19
1.0403485208654093 9.932318626475908e-21 2.7428302482132833e-13 2.742824330386881e-13 5.917826401628119e-19
1.0423010764483396 9.970776500770938e-21 2.7586182232808186e-13 2.7586120377003754e-13 6.185580442908632e-19
1.0462171883269815 1.0047803166469447e-20 2.7903739099437633e-13 2.790367153663511e-13 6.756280252557926e-19
1.0471985131304309 1.0067082849552263e-20 2.7983503888337305e-13 2.7983434821956297e-13 6.906638100517116e-19
1.048180758391296 1.0086371709821136e-20 2.806341929606808e-13 2.806334869412618e-13 7.060194190125828e-19
1.0501480137395462 1.012497690650784e-20 2.822370275920724e-13 2.822362898759842e-13 7.377160881157707e-19
1.0521189612883777 1.0163618650205659e-20 2.8384591085661827e-13 2.8384514008538256e-13 7.70771235681617e-19
1.0531058218030118 1.0182927936122572e-20 2.846519196714287e-13 2.8465113184485045e-13 7.878265782462382e-19
1.0540936079674168 1.0202163570609886e-20 2.8545713001959427e-13 2.854563247732525e-13 8.052463416757021e-19
1.058054026499678 1.0279193590009538e-20 2.8869304588580513e-13 2.8869216720618547e-13 8.786796197114423e-19
1.0590464539527713 1.029847291679954e-20 2.895058038585995e-13 2.8950490584413713e-13 8.98014462328881e-19
1.06003981227728 1.0317760954673242e-20 2.9032007764417786e-13 2.9031915988857237e-13 9.177556054173706e-19
1.0620293250338977 1.0356363132166653e-20 2.919531812025796e-13 2.9195222271321437e-13 9.584893652221638e-19
1.0660195594769086 1.043367170119643e-20 2.9523767303012055e-13 2.9523662783065157e-13 1.045199468931894e-18
1.070024785945596 1.0511118928217388e-20 2.9854666267400956e-13 2.985455232997709e-13 1.1393742387430417e-18
1.0740450607676866 1.0588704574761966e-20 3.01880295852682e-13 3.0187905423138273e-13 1.241621299312044e-18
1.07808044048254 1.0666428536240544e-20 3.052387228693941e-13 3.052373702747117e-13 1.352594682522595e-18
1.0861967418109137 1.0822174294346927e-20 3.1202719924002916e-13 3.120255956513088e-13 1.6035887204486885e-18
1.0902777775684922 1.0899929740550215e-20 3.1544982573816013e-13 3.154480805575337e-13 1.745180626502772e-18
1.0943741465085532 1.0977819948626418e-20 3.1889768111324894e-13 3.1889578246496633e-13 1.898648282652765e-18
1.1026131145906286 1.1134007372126594e-20 3.2586978291305735e-13 3.258675378728163e-13 2.2450402409917493e-18
1.1109141095355224 1.1290743598284171e-20 3.3294497210017017e-13 3.329423209514635e-13 2.6511487066160843e-18
1.1192775983109025 1.144791763608693e-20 3.4012122994930334e-13 3.4011810331716044e-13 3.126632142888769e-18
1.1277040513999907 1.1604987407084383e-20 3.4738354859630793e-13 3.473798659949638e-13 3.682601344103678e-18
1.1361939428280308 1.1762625622281412e-20 3.547530821446927e-13 3.5474875032409346e-13 4.331820599191489e-18
1.1447477501889525 1.192085081482649e-20 3.6223172553369674e-13 3.622266366004186e-13 5.08893327814097e-18
1.1533659546722406 1.2079738329867074e-20 3.698231449174796e-13 3.6981717419328213e-13 5.970724197444989e-18
1.1707974979042381 1.2400042643631486e-20 3.853668893183673e-13 3.853587013549579e-13 8.187963409387905e-18
1.1884924949847024 1.2723318960110852e-20 4.013897622529068e-13 4.013785901801402e-13 1.1172072766493006e-17
1.2064549276569216 1.3051883033417773e-20 4.1797827353403407e-13 4.1796310538740147e-13 1.516814663274353e-17
1.2246888378427687 1.3383952451651981e-20 4.350904768755717e-13 4.350699846578833e-13 2.049221768830452e-17
1.2431983285522175 1.3719550530302172e-20 4.527409045221456e-13 4.527133541871525e-13 2.755033499307416e-17
1.2619875648066055 1.4059499875091676e-20 4.709712326233128e-13 4.709343710664402e-13 3.686155687281963e-17
1.3004222497298317 1.4752134220130995e-20 5.092237838409547e-13 5.091587280732718e-13 6.505576768283517e-17
1.3400274889804893 1.5467813107034436e-20 5.501891941579102e-13 5.50076491548178e-13 1.1270260973225497e-16
1.3808389325824078 1.6214317829546764e-20 5.943074003938698e-13 5.941156554456785e-13 1.9174494819118706e-16
1.4228933163050095 1.7004356430372114e-20 6.422468340950178e-13 6.419263015223276e-13 3.205325726903169e-16
1.466228494730424 1.7859132505039333e-20 6.950746471510641e-13 6.945479063795617e-13 5.267407715023503e-16
1.5108834753276823 1.8789554968363922e-20 7.535583704320892e-13 7.527070552914507e-13 8.5131514063838015e-16
1.5568984535646726 1.9810854637716325e-20 8.187153474811884e-13 8.173607388196419e-13 1.3546086615464653e-15
1.6043148490894465 2.0947757632445613e-20 8.920651570628015e-13 8.899390468991768e-13 2.1261101636248306e-15
1.6531753430134553 2.2230385513515714e-20 9.75518132823602e-13 9.722304894689712e-13 3.2876433546307217e-15
1.7035239163302658 2.369589759125883e-20 1.0714966867065883e-12 1.0664869923547124e-12 5.009694351875705e-15
1.755405889504358 2.539924693808501e-20 1.1834988072605525e-12 1.1759725031577544e-12 7.526304102797355e-15
1.8088679632656115 2.7387604211891275e-20 1.3150138993132992e-12 1.3038619996630746e-12 1.1151899650224794e-14
1.8639582606462262 2.971687750739759e-20 1.4703095910052556e-12 1.4540059774093446e-12 1.630361359591081e-14
1.9207263702978936 3.245655702118755e-20 1.6547690146521287e-12 1.6312429918903115e-12 2.3526022761816657e-14
1.979223391128241 3.568887778160243e-20 1.874982160564375e-12 1.8414618093834027e-12 3.3520351180972207e-14
2.039501978296691 3.9506732572112445e-20 2.1387729194517824e-12 2.091597427716853e-12 4.7175491734929494e-14
2.1016163906111602 4.4023847244870926e-20 2.4559010953327868e-12 2.390294284434106e-12 6.560681089868168e-14
2.1656225393682647 4.9359655505921594e-20 2.8374245097726636e-12 2.747235700984325e-12 9.018880878833926e-14
2.231578038680979 5.563426157980605e-20 3.295519152650473e-12 3.1729277732811145e-12 1.225913793693584e-13
2.299542257339062 6.298285308016388e-20 3.8444406242427736e-12 3.679624171545608e-12 1.648164526971652e-13
2.369576372248914 7.155276687003186e-20 4.50056020675033e-12 4.2813243643047315e-12 2.1923584244559957e-13
2.4417434235010123 8.149821783659522e-20 5.2822332134882195e-12 4.993617457980773e-12 2.886157555074467e-13
2.5161083711144245 9.298594860726482e-20 6.210350357444661e-12 5.834199253571282e-12 3.761511038733787e-13
2.5927381535095444 1.0619089737663972e-19 7.308283441644773e-12 6.82280441177221e-12 4.854790298725641e-13
2.6717017477616296 1.2128050333437245e-19 8.600989120052162e-12 7.980331531103308e-12 6.206575889488556e-13
2.753070231689431 1.3841926281703423e-19 1.011540453042527e-11 9.329248847015603e-12 7.861556834096642e-13
2.836916847834745 1.5780719239498223e-19 1.1883457922486872e-11 1.0896597753512785e-11 9.868601689740856e-13
2.9233170693905177 1.7968595034502229e-19 1.3943104311051522e-11 1.2715337877346981e-11 1.2277664337045457e-12
2.967498994190263 1.9149876184954281e-19 1.5084328573279658e-11 1.3722231136239462e-11 1.3620974370401946e-12
3.0123486681368425 2.040284103056188e-19 1.6314182535475105e-11 1.4804983924873012e-11 1.509198610602093e-12
3.0578761833420214 2.182529803759023e-19 1.771534083631977e-11 1.604476602529278e-11 1.6705748110269932e-12
3.1040917844459814 2.334746005059282e-19 1.923727832378963e-11 1.739177988265068e-11 1.8454984411389477e-12
3.127460860933648 2.4254769653243506e-19 2.01353169816471e-11 1.819643187598004e-11 1.938885105667061e-12
3.1510058709225794 2.5248246225578425e-19 2.1117857853339347e-11 1.908182764626298e-11 2.0360302070763656e-12
3.162844764501044 2.5888628137839494e-19 2.1734834984068558e-11 1.964860750261868e-11 2.0862274814498724e-12
3.1747281389236908 2.6571461717422604e-19 2.239192445956315e-11 2.025453201470178e-11 2.13739244486137e-12
3.1986289994194426 2.818959404401012e-19 2.3934376865636088e-11 2.1691439675269124e-11 2.2429371903669645e-12
3.2227097969389145 3.1050169210179756e-19 2.6561622713806827e-11 2.4207045911945203e-11 2.3545768018616245e-12
3.2348180950136065 3.3431479036523536e-19 2.8706145873071224e-11 2.6292041168021804e-11 2.414104705049422e-12
3.240889293275058 3.512434756880239e-19 3.0216342540366077e-11 2.777083789211958e-11 2.4455046482465042e-12
3.2469718861334385 3.7056817986879144e-19 3.19386154746399e-11 2.946062122498566e-11 2.47799424965424e-12
3.2714166318528037 4.691367722395853e-19 4.073847483138786e-11 3.812638018488712e-11 2.6120946465007197e-12
3.2744851364798273 4.757392680748924e-19 4.1350565815540825e-11 3.8722714309300544e-11 2.627851506240273e-12
3.2775565192852394 4.82492682210126e-19 4.197689911262462e-11 3.9333216206726326e-11 2.6436829058982925e-12
3.283707930232385 4.786766499245677e-19 4.172306435685534e-11 3.905116444721204e-11 2.6718999096432917e-12
3.2898708863219004 4.626005119034381e-19 4.0397491301510716e-11 3.769999926267162e-11 2.697492038839102e-12
3.29141343181113 4.588222732552497e-19 4.0086336008628436e-11 3.738241982977232e-11 2.703916178856103e-12
3.292184975758714 4.569677779739445e-19 3.993367136367505e-11 3.7226539195934714e-11 2.707132167740329e-12
3.295272960557952 4.44984305073403e-19 3.8922929639158314e-11 3.620330431558919e-11 2.7196253235691225e-12
3.3076538914384823 4.035150877513359e-19 3.542821489437394e-11 3.265845382925786e-11 2.7697610651160846e-12
3.310756385682612 3.9511540909837245e-19 3.472327065304711e-11 3.194088121300083e-11 2.782389440046287e-12
3.313861789986515 3.8738501559059622e-19 3.4075845646259015e-11 3.1280790034553096e-11 2.7950556117059223e-12
3.3200813396944477 3.7720790538451043e-19 3.3242903029076984e-11 3.042056292752149e-11 2.822340101555484e-12
3.345076488085796 3.642124282200299e-19 3.233927259827708e-11 2.939522992912946e-11 2.9440426691476337e-12
3.3482140837626964 3.6612477610172763e-19 3.253956711085488e-11 2.95790329228525e-11 2.9605341880023847e-12
3.3513546224236106 3.680477126902233e-19 3.274115087428408e-11 2.97640554917592e-11 2.9770953825248783e-12
3.3576445397418455 3.7628137768520776e-19 3.3536433571849645e-11 3.0524696850807325e-11 3.0117367210423224e-12
3.3702598118196083 4.0261194509103802e-19 3.6017989787714356e-11 3.293359836890041e-11 3.0843914188139443e-12
3.382922481734668 4.1217531375696485e-19 3.7012076955309086e-11 3.38572135615557e-11 3.1548633937533854e-12
3.389271646505754 4.170525716170308e-19 3.752032702373315e-11 3.4329772286111334e-11 3.190554737621814e-12
3.395632727569191 4.222857379487974e-19 3.806243407885874e-11 3.4835096981639556e-11 3.2273370972191664e-12
3.421196662673239 4.461280385495402e-19 4.051417425334233e-11 3.713473217016661e-11 3.3794420831757025e-12
3.4276182099114902 4.454498326264435e-19 4.0528513457873384e-11 3.711528778015694e-11 3.4132256777164477e-12
3.4340518103208963 4.352643571391559e-19 3.967613701873125e-11 3.6231036341972606e-11 3.4451006767586477e-12
3.4469541582030403 4.216302889479559e-19 3.8577736534094594e-11 3.5071614443430546e-11 3.506122090664051e-12
3.472904465399547 4.2493000119381795e-19 3.9172353428840764e-11 3.552541866450176e-11 3.6469347643390156e-12
3.4990501388274233 4.2587101138871217e-19 3.9554662002888254e-11 3.5763982205052134e-11 3.790679797836124e-12
3.5253949054701885 4.0825990819782893e-19 3.820444888660136e-11 3.427468811806187e-11 3.92976076853949e-12
3.5519380250092896 3.9182016114704733e-19 3.694210101000253e-11 3.287300563334027e-11 4.069095376662254e-12
3.578680990867387 3.909393539937606e-19 3.713657183207843e-11 3.291481486436359e-11 4.2217569677148425e-12
3.605625307711299 3.9621442821339643e-19 3.7921046398395366e-11 3.353877820145913e-11 4.382268196936242e-12
3.660119384959845 4.1218032936402783e-19 4.004533640368981e-11 3.5327090167820654e-11 4.7182462358691474e-12
3.715437065384467 4.2927840599518637e-19 4.2336834706706655e-11 3.7266205819743145e-11 5.070628886963506e-12
3.8285932144167436 4.675933772239358e-19 4.75200632169844e-11 4.169837539993057e-11 5.821687817053826e-12
3.94519561050918 5.078229029910551e-19 5.318023573379487e-11 4.6548943570834246e-11 6.631292162960626e-12
4.06534921144712 5.491661499793859e-19 5.926128307162889e-11 5.176497184317179e-11 7.496311228457094e-12
4.189162171576248 5.911665404649527e-19 6.573648097656165e-11 5.732028374757863e-11 8.416197228983046e-12
4.316745939156006 6.333907389742613e-19 7.257676918116176e-11 6.319174637868148e-11 9.385022802480255e-12
4.448215356677963 6.753466932854352e-19 7.974106210220855e-11 6.935457704996412e-11 1.038648505224444e-11
4.58368876423945 7.167017600975739e-19 8.720131318562586e-11 7.57817001503778e-11 1.1419613035248074e-11
4.723288106065518 7.571743925002649e-19 9.493137861540315e-11 8.24425017549825e-11 1.2488876860420664e-11
4.867139040275056 7.962138878870218e-19 1.0286625630239762e-10 8.930496105312711e-11 1.3561295249270523e-11
4.940699165968905 8.151873803638086e-19 1.0690925222508147e-10 9.280764066276428e-11 1.4101611562317194e-11
5.015371051989984 8.336420969131549e-19 1.1098189583309819e-10 9.633930154306212e-11 1.4642594290036046e-11
5.091171501069577 8.518320575536457e-19 1.1511744449931732e-10 9.992063662270014e-11 1.519680787661718e-11
5.129500256944802 8.606988834298099e-19 1.1719139623080341e-10 1.0171805426577458e-10 1.5473341965028832e-11
5.168117569889187 8.694476189953073e-19 1.192738506901156e-10 1.0352124317627207e-10 1.575260751384353e-11
5.20702561229733 8.783874569916185e-19 1.214074318588172e-10 1.0534724179999835e-10 1.6060190058818817e-11
5.246226572918644 8.871666780396249e-19 1.2354401105054e-10 1.0717589525839933e-10 1.636811579214067e-11
5.265937586045735 8.914944582495066e-19 1.24613125296697e-10 1.0809097153835578e-10 1.6522153758341224e-11
5.285722656980489 8.957801835700984e-19 1.256826287341246e-10 1.0900641572745652e-10 1.6676213006668086e-11
5.305582063971359 9.000232396307801e-19 1.2675240050272806e-10 1.0992212866759217e-10 1.6830271835135925e-11
5.3255160863122235 9.042617471112662e-19 1.278277937399514e-10 1.1084204976009561e-10 1.698574397985577e-11
5.365609099470188 9.129035392710726e-19 1.3002095563378307e-10 1.1271330506285984e-10 1.730765057092317e-11
5.406003951863644 9.213755006126464e-19 1.3221552446078275e-10 1.1458574773395907e-10 1.7629776726823663e-11
5.446702915881641 9.29673432208342e-19 1.3441060655557548e-10 1.1645865843665667e-10 1.795194811891883e-11
5.487708281020852 9.378591640988474e-19 1.3661490242087488e-10 1.1833930874009327e-10 1.8275593680781592e-11
5.529022354014368 9.464391742080414e-19 1.3890263575623244e-10 1.2028964226963875e-10 1.8612993486593674e-11
5.570647458961463 9.548579970540077e-19 1.4119323783849723e-10 1.2224272498041614e-10 1.89505128580811e-11
5.612585937458331 9.631137847359861e-19 1.4348616745782534e-10 1.2419819251333768e-10 1.9287974944487666e-11
5.654840148729818 9.71299497386207e-19 1.4579510057976742e-10 1.261679504945853e-10 1.9627150085182103e-11
5.67608639626678 9.757430422903098e-19 1.4701237491890885e-10 1.272073140868423e-10 1.980506083206654e-11
5.686739436050992 9.779538951974414e-19 1.476220198835504e-10 1.2772798612498585e-10 1.9894033758564563e-11
5.6974124697621304 9.801575567480456e-19 1.4823234782551095e-10 1.2824933318909607e-10 1.998301463641491e-11
5.718818669136295 9.845435948743801e-19 1.494550900140804e-10 1.2929410105130697e-10 2.016098896277346e-11
5.740305295436557 9.890154287592842e-19 1.506980006680956e-10 1.3035751910931807e-10 2.0340481558777523e-11
5.7835210386641895 9.987868724861893e-19 1.5333262771145867e-10 1.3262142983672048e-10 2.0711197874738187e-11
5.827062130521658 1.008764051036444e-18 1.56030204907378e-10 1.3494434077842545e-10 2.1085864128952474e-11
5.8489554468988025 1.0147294441481646e-18 1.5754260003505866e-10 1.3625305406059627e-10 2.1289545974462393e-11
5.870931020387893 1.0207524769729474e-18 1.5907313977818196e-10 1.3757960742333115e-10 2.1493532354850846e-11
5.892989160043636 1.02684100860411e-18 1.6062320223685284e-10 1.3892540217846523e-10 2.1697800058387584e-11
5.915130176081913 1.0333335742914084e-18 1.6224610520676742e-10 1.4033611077730598e-10 2.1909994429461435e-11
5.95966208400165 1.0496483569719428e-18 1.6604847794429233e-10 1.4364734355579792e-10 2.2401134388494422e-11
6.004529249263818 1.0704712356887788e-18 1.7061743150225988e-10 1.4765926982595113e-10 2.2958161676308787e-11
6.027089341400364 1.0839583674871596e-18 1.734161995930428e-10 1.501323959885521e-10 2.328380360449068e-11
6.049734195844842 1.099025629741485e-18 1.7648733581487255e-10 1.5285775246986798e-10 2.362958334500456e-11
6.095279466722835 1.1402284894570172e-18 1.8448240162295872e-10 1.5999011093347682e-10 2.449229068948191e-11
6.141167624020661 1.199268130763749e-18 1.9549546065168123e-10 1.698676767828946e-10 2.562778386878664e-11
6.164241091010745 1.2363862559373427e-18 2.0230341681764585e-10 1.7595539538701397e-10 2.634802143063186e-11
6.187401249150058 1.2762367459698348e-18 2.0960853305547126e-10 1.8252241618624577e-10 2.7086116869225538e-11
6.1990139391386085 1.2954832940349715e-18 2.131689091820035e-10 1.8570749251627956e-10 2.746141666572393e-11
6.204828454712694 1.3054164957553385e-18 2.1500487560144285e-10 1.8735405688755536e-10 2.7650818713887513e-11
6.210648424152782 1.3126491104953372e-18 2.1639888902623959e-10 1.885883564520546e-10 2.7810532574185007e-11
6.233982942956859 1.336399050378592e-18 2.2114198373073845e-10 1.927816176595578e-10 2.8360366071180605e-11
6.239830258556775 1.338976909202557e-18 2.217763831313983e-10 1.9334501748402512e-10 2.8431365647373243e-11
6.245683058788269 1.338834914955962e-18 2.219608629318125e-10 1.934584389594512e-10 2.8502423972361242e-11
6.257405133728602 1.3372642299033672e-18 2.2211655814094963e-10 1.9349284812176257e-10 2.8623710019186997e-11
6.269149208991335 1.3313854193221605e-18 2.2155514303345568e-10 1.9290184577482742e-10 2.8653297258628254e-11
6.280915325867298 1.3182079083706458e-18 2.1977398575346776e-10 1.9120428792618487e-10 2.856969782728291e-11
6.304513850009849 1.2862374236997704e-18 2.1524951304294433e-10 1.869490904742418e-10 2.8300422568702488e-11
6.32820103803542 1.248453762724137e-18 2.097114597605065e-10 1.8178887958360276e-10 2.7922580176903688e-11
6.3519772230701035 1.2144562504952424e-18 2.0476712825881244e-10 1.7718747420565348e-10 2.7579654053159005e-11
6.375842739491607 1.1851133412073115e-18 2.0057043518952304e-10 1.7329771630242647e-10 2.727271888709657e-11
6.399797922933955 1.1633492380704288e-18 1.9762678423820129e-10 1.7053271941608793e-10 2.709406482211339e-11
6.42384311029221 1.1447740827311635e-18 1.952019479563306e-10 1.682607797945447e-10 2.6941168161785947e-11
6.447978639727206 1.1321186599182158e-18 1.9376930063606395e-10 1.6688143781388867e-10 2.688786282217526e-11
6.472204850670314 1.1214227149225186e-18 1.926597694907799e-10 1.6580554570865044e-10 2.6854223782129475e-11
