Dust emission spectrum from A.P. Jones, M. Kohler, N. Ysard, M. Bocchio, and L. Verstraete (2017), A&A, 602A, 46J 
inside the DustPedia framework.

lambda    nu*dP/dnu     j_nu    j_nu(carb.) j_nu(sil)
 (um)   (erg s-1 H-1) (Jy cm2 sr-1 H-1)
0.9927057738263894 2.9222454667365756e-24 7.700282785079802e-17 7.700282784676251e-17 4.03551987548069e-27
1.0001793341362166 2.9704799062434547e-24 7.886311529834136e-17 7.886311529348051e-17 4.860836082525818e-27
1.0077091589558085 3.018644677671113e-24 8.074518509992609e-17 8.074518509407869e-17 5.847385850119814e-27
1.0114953028030835 3.042695010116929e-24 8.169429431666813e-17 8.169429431025787e-17 6.410269351225716e-27
1.0152956718711033 3.066720831187213e-24 8.264873506276234e-17 8.264873505573729e-17 7.025058892986934e-27
1.0229392996569957 3.114665966162553e-24 8.45728126524949e-17 8.457281264406584e-17 8.429073305238194e-27
1.0267826658714554 3.1385270903079457e-24 8.554090545790898e-17 8.554090544868011e-17 9.228866508755854e-27
1.0306404723013447 3.162353160743937e-24 8.651412001395846e-17 8.65141200038572e-17 1.0101263960239588e-26
1.03451277320114 3.1861418802531888e-24 8.749241445598456e-17 8.749241444493202e-17 1.1052533364463691e-26
1.0383996230291617 3.2098909644528118e-24 8.847574639864357e-17 8.847574638655409e-17 1.2089453428742983e-26
1.0403485208654093 3.221749933059376e-24 8.896928804739457e-17 8.896928803475229e-17 1.2642300078128669e-26
1.0423010764483396 3.2335981422328235e-24 8.946407294598124e-17 8.946407293276185e-17 1.3219352881686312e-26
1.0462171883269815 3.2572611561849532e-24 9.045735070152051e-17 9.045735068707039e-17 1.445015225228812e-26
1.0471985131304309 3.263169745873462e-24 9.070643863432189e-17 9.070643861954727e-17 1.4774605830221924e-26
1.048180758391296 3.2690754001353672e-24 9.095583258658947e-17 9.095583257148346e-17 1.510603733390728e-26
1.0501480137395462 3.2808777630217032e-24 9.145553577835767e-17 9.145553576256729e-17 1.579040858758639e-26
1.0521189612883777 3.2926679667065624e-24 9.19564547159905e-17 9.195645469948609e-17 1.6504442949077285e-26
1.0531058218030118 3.2985493618265427e-24 9.220711507189725e-17 9.220711505502427e-17 1.6872988039716832e-26
1.0540936079674168 3.3043979287465045e-24 9.24572462158907e-17 9.245724619864118e-17 1.7249492318349832e-26
1.058054026499678 3.3277588447967515e-24 9.346072028563782e-17 9.346072026680022e-17 1.8837593042314958e-26
1.0590464539527713 3.333590565247103e-24 9.371232260590609e-17 9.371232258665012e-17 1.925598077301112e-26
1.06003981227728 3.3394188142295684e-24 9.396421701303703e-17 9.396421699335381e-17 1.9683261550576817e-26
1.0620293250338977 3.351064762210628e-24 9.44688792057234e-17 9.446887918515817e-17 2.0565225130781322e-26
1.0660195594769086 3.3743135127625344e-24 9.54816768355732e-17 9.548167681312917e-17 2.244401658394178e-26
1.070024785945596 3.397502944715633e-24 9.649906660717356e-17 9.649906658268707e-17 2.4486507967320698e-26
1.0740450607676866 3.4206309231761944e-24 9.752100153521146e-17 9.752100150850527e-17 2.67062192575315e-26
1.07808044048254 3.443695330438231e-24 9.854743422719697e-17 9.854743419807926e-17 2.911772120453672e-26
1.0861967418109137 3.4895842524244384e-24 1.0061242511727777e-16 1.0061242508269769e-16 3.4580100502389147e-26
1.0902777775684922 3.5123118509137605e-24 1.0164819294081908e-16 1.0164819290315299e-16 3.766609609714169e-26
1.0943741465085532 3.5349659655661076e-24 1.0268818895816734e-16 1.026881889171531e-16 4.1014276846770066e-26
1.1026131145906286 3.5800457021707384e-24 1.0478066672614179e-16 1.047806666775587e-16 4.858307873336558e-26
1.1109141095355224 3.6248075753257194e-24 1.0688945741525041e-16 1.0688945735777557e-16 5.747485694351324e-26
1.1192775983109025 3.669194418999022e-24 1.0901291906391125e-16 1.0901291899600407e-16 6.79071583576773e-26
1.1277040513999907 3.712999915977157e-24 1.1114489326912535e-16 1.111448931889945e-16 8.013091207260113e-26
1.1361939428280308 3.7564359061908756e-24 1.132916457934279e-16 1.1329164569899275e-16 9.443512875560586e-26
1.1447477501889525 3.799487932838837e-24 1.154527551292657e-16 1.1545275501811346e-16 1.1115226662464215e-25
1.1533659546722406 3.842165360075436e-24 1.1762851462128765e-16 1.1762851449062322e-16 1.3066443328409204e-25
1.1707974979042381 3.9265345341788026e-24 1.2202832221829246e-16 1.2202832203839963e-16 1.7989280487902486e-25
1.1884924949847024 4.009223916352612e-24 1.2648126166204528e-16 1.2648126141560225e-16 2.4644305063504086e-25
1.2064549276569216 4.090881028330979e-24 1.3100786952173306e-16 1.3100786918576676e-16 3.35966304343435e-25
1.2246888378427687 4.170613589647209e-24 1.3557984923649126e-16 1.3557984878070018e-16 4.5579106370028785e-25
1.2431983285522175 4.248235261281803e-24 1.401904435985364e-16 1.4019044298314795e-16 6.153884411585098e-25
1.2619875648066055 4.323717398194982e-24 1.4483776312345365e-16 1.4483776229651763e-16 8.269360014267935e-25
1.3004222497298317 4.467008994799831e-24 1.5419512789406759e-16 1.5419512642168006e-16 1.4723875393183824e-24
1.3400274889804893 4.59993066973604e-24 1.6361926090336315e-16 1.6361925832931194e-16 2.5740511932932344e-24
1.3808389325824078 4.7219929393499304e-24 1.730763747179926e-16 1.7307637029763469e-16 4.420357980472579e-24
1.4228933163050095 4.833794179226153e-24 1.8257021493209114e-16 1.8257020747180028e-16 7.460290767534662e-24
1.466228494730424 4.938030230497098e-24 1.9218736515424598e-16 1.9218735277403382e-16 1.2380212164761126e-23
1.5108834753276823 5.032678631887381e-24 2.018364519616757e-16 2.0183643175172576e-16 2.0209949942132364e-23
1.5568984535646726 5.116104300393949e-24 2.1143121721122656e-16 2.1143118472354047e-16 3.248768606910622e-23
1.6043148490894465 5.188464750243918e-24 2.2095198462542013e-16 2.2095193310439172e-16 5.1521028369934536e-23
1.6531753430134553 5.249985320527256e-24 2.3038088449335743e-16 2.3038080398051996e-16 8.051283746822532e-23
1.7035239163302658 5.301401163903448e-24 2.3972224559750146e-16 2.3972212158498085e-16 1.2401252063664091e-22
1.755405889504358 5.346932992275143e-24 2.491447417431518e-16 2.4914455337656775e-16 1.8836658403068785e-22
1.8088679632656115 5.385546542657945e-24 2.585866402990794e-16 2.5858635804835722e-16 2.822507221731763e-22
1.8639582606462262 5.4165435342588425e-24 2.67995717468491e-16 2.6799530008754293e-16 4.1738094813741106e-22
1.9207263702978936 5.440441999653772e-24 2.7737615056218713e-16 2.773755412193943e-16 6.093427928336585e-22
1.979223391128241 5.458438995839161e-24 2.8676933481509494e-16 2.8676845621522997e-16 8.785998648117978e-22
2.039501978296691 5.4719656492358095e-24 2.962353802707851e-16 2.96234128636035e-16 1.251634750112679e-21
2.1016163906111602 5.485017973072459e-24 3.0598556216728877e-16 3.0598379977646325e-16 1.762390825466281e-21
2.1656225393682647 5.499916637542421e-24 3.161610045515238e-16 3.161585508797356e-16 2.4536717881800218e-21
2.231578038680979 5.516834978119743e-24 3.2679206690513326e-16 3.267886881428949e-16 3.3787622385153657e-21
2.299542257339062 5.537166330891414e-24 3.3798575556070796e-16 3.3798115234982717e-16 4.603210880783106e-21
2.369576372248914 5.563980797979019e-24 3.499659295634471e-16 3.499597227424118e-16 6.206821035247066e-21
2.4417434235010123 5.600902601291932e-24 3.6301743193177037e-16 3.630091464797582e-16 8.285452012166779e-21
2.5161083711144245 5.6541324087301235e-24 3.776284885139426e-16 3.7761753521367295e-16 1.0953300269664944e-20
2.5927381535095444 5.733810950375562e-24 3.9461306629253016e-16 3.945987214670987e-16 1.434482543150071e-20
2.6717017477616296 5.852040842587218e-24 4.1501591956972394e-16 4.1499730376692203e-16 1.8615802801923245e-20
2.753070231689431 6.027036876431926e-24 4.4044387236396277e-16 4.4041992740206033e-16 2.3944961902283627e-20
2.836916847834745 6.300053848129252e-24 4.744170634901048e-16 4.743865272108425e-16 3.05362792623246e-20
2.9233170693905177 6.761932043998565e-24 5.247061534453779e-16 5.246675399846518e-16 3.8613460726244913e-20
2.967498994190263 7.153359634419231e-24 5.634690589445863e-16 5.634258429522666e-16 4.321599231970321e-20
3.0123486681368425 7.610337665632425e-24 6.08525242380471e-16 6.0847693955747165e-16 4.83028229994044e-20
3.0578761833420214 8.631124897224016e-24 7.005783796941506e-16 7.00524448187166e-16 5.3931506984508264e-20
3.1040917844459814 9.946145966916643e-24 8.195186020234988e-16 8.19458498654889e-16 6.010336860985972e-20
3.127460860933648 1.133640100450657e-23 9.411016097869959e-16 9.410381832900591e-16 6.342649693663802e-20
3.1510058709225794 1.3188462956245252e-23 1.103094779438045e-15 1.1030278753715327e-15 6.690406651248487e-20
3.162844764501044 1.491210742795528e-23 1.2519481236534903e-15 1.251879414648173e-15 6.870900531736398e-20
3.1747281389236908 1.6916475750586734e-23 1.4255611947791345e-15 1.4254906404210558e-15 7.055435807920053e-20
3.1986289994194426 2.250687277020264e-23 1.9109461956349675e-15 1.9108718173815603e-15 7.43782534070753e-20
3.2227097969389145 3.5683622133554496e-23 3.0525273526135285e-15 3.052448907892827e-15 7.844472070079912e-20
3.2348180950136065 4.8178876954703586e-23 4.136909014260258e-15 4.1368283956161336e-15 8.061864412486043e-20
3.240889293275058 5.752059775546035e-23 4.9483113714811225e-15 4.948229606014249e-15 8.176546687397259e-20
3.2469718861334385 6.832752421787322e-23 5.889028364770796e-15 5.888945412554372e-15 8.295221642218191e-20
3.2714166318528037 1.2597212425546112e-22 1.0939053421326625e-14 1.093896555288755e-14 8.786843907416135e-20
3.2744851364798273 1.295756704657468e-22 1.126252897173755e-14 1.1262440520655851e-14 8.845108169700391e-20
3.2775565192852394 1.3328270838400569e-22 1.1595605507766514e-14 1.1595516470814758e-14 8.903695175749724e-20
3.283707930232385 1.297178113070104e-22 1.130664006745618e-14 1.1306549976229347e-14 9.009122682962583e-20
3.2898708863219004 1.1841225541026562e-22 1.0340580986920692e-14 1.034048993018463e-14 9.105673606318987e-20
3.29141343181113 1.1574612114651123e-22 1.0112494912367191e-14 1.0112403613019919e-14 9.129934727076413e-20
3.292184975758714 1.1443607688430898e-22 1.0000382755010817e-14 1.0000291334172455e-14 9.142083836560592e-20
3.295272960557952 1.061670388079664e-22 9.286467262791687e-15 9.286375368237596e-15 9.189455408913707e-20
3.3076538914384823 7.75204253135769e-23 6.8062146127361875e-15 6.806120812284234e-15 9.380045195396588e-20
3.310756385682612 7.169006640281519e-23 6.300218927225143e-15 6.300124645700719e-15 9.428152442256758e-20
3.313861789986515 6.631063505776242e-23 5.832933319552425e-15 5.832838555108757e-15 9.476444366834588e-20
3.3200813396944477 5.87666680976765e-23 5.179039519125712e-15 5.178943718712769e-15 9.580041294074979e-20
3.345076488085796 4.5309688119608553e-23 4.023153088443548e-15 4.023052677831694e-15 1.00410611854497e-19
3.3482140837626964 4.581445898715264e-23 4.071788527214416e-15 4.071687492282635e-15 1.0103493178169383e-19
3.3513546224236106 4.632480862433639e-23 4.121007945696232e-15 4.120906283273293e-15 1.0166242293841293e-19
3.3576445397418455 5.005394190190403e-23 4.461104899554044e-15 4.4610019262121875e-15 1.0297334185660117e-19
3.3702598118196083 6.380798486224637e-23 5.708313861933105e-15 5.708208137982576e-15 1.0572395052830377e-19
3.382922481734668 6.694097847960059e-23 6.011094221939679e-15 6.010985812402986e-15 1.084095366945367e-19
3.389271646505754 6.856406963384023e-23 6.168398158450881e-15 6.1682883852383995e-15 1.0977321248001016e-19
3.395632727569191 7.03130558790149e-23 6.337618853238701e-15 6.337507674528368e-15 1.111787103321441e-19
3.421196662673239 7.871096603466306e-23 7.147969905556914e-15 7.14785289470764e-15 1.1701084927730958e-19
3.4276182099114902 7.701907445440207e-23 7.007452617354254e-15 7.007334291801721e-15 1.1832555253440993e-19
3.4340518103208963 6.960445264435468e-23 6.344732241303877e-15 6.344612665889914e-15 1.1957541396430771e-19
3.4469541582030403 5.904469510984323e-23 5.402388659901611e-15 5.402266672447994e-15 1.2198745361651318e-19
3.472904465399547 5.608597176393029e-23 5.170309232495361e-15 5.170181706202655e-15 1.275262927054012e-19
3.4990501388274233 5.156041147703056e-23 4.7889022595207344e-15 4.788769034035897e-15 1.3322548483844514e-19
3.5253949054701885 3.545291593584444e-23 3.317639296816819e-15 3.317500485672054e-15 1.3881114476518591e-19
3.5519380250092896 2.0313705541392663e-23 1.915243360118839e-15 1.915098894564829e-15 1.4446555401064368e-19
3.578680990867387 1.4311632820899388e-23 1.3595074910164817e-15 1.3593568199159944e-15 1.5067110048713278e-19
3.605625307711299 1.1884624753984576e-23 1.137458342331334e-15 1.1373011095434875e-15 1.5723278784659348e-19
3.660119384959845 1.0115605586780479e-23 9.827805933259585e-16 9.826094606441265e-16 1.7113268183199482e-19
3.715437065384467 8.86362029797586e-24 8.741591056472145e-16 8.739731507719437e-16 1.8595487527099918e-19
3.8285932144167436 8.232188145676338e-24 8.366117232436803e-16 8.363933112598895e-16 2.184119837910619e-19
3.94519561050918 8.115932159233128e-24 8.499167384640527e-16 8.496620047078781e-16 2.54733756174351e-19
4.06534921144712 8.212004749302353e-24 8.861688544573171e-16 8.858737198935263e-16 2.951345637910141e-19
4.189162171576248 8.431788630624499e-24 9.37597233563824e-16 9.372572738251075e-16 3.399597387161524e-19
4.316745939156006 8.742455829713618e-24 1.001750041147051e-15 1.0013606735236486e-15 3.8936762340212635e-19
4.448215356677963 9.133225327036534e-24 1.0783988360906528e-15 1.0779557716890986e-15 4.430644015542603e-19
4.58368876423945 9.605838793448324e-24 1.1687452210583139e-15 1.1682437663605864e-15 5.014546977279235e-19
4.723288106065518 1.0171320817315195e-23 1.2752379334156399e-15 1.2746726823388783e-15 5.652510767615567e-19
4.867139040275056 1.0851334333868518e-23 1.4019300037242175e-15 1.4012965462821145e-15 6.3345744210302805e-19
4.940699165968905 1.1261019651405546e-23 1.4768471878041398e-15 1.4761776687663271e-15 6.69519037813497e-19
5.015371051989984 1.1685948511056549e-23 1.555738038142926e-15 1.555031175114986e-15 7.068630279400394e-19
5.091171501069577 1.220297594392802e-23 1.6491224925086479e-15 1.648376278591671e-15 7.462139169767223e-19
5.129500256944802 1.2468618061566975e-23 1.6977072793226292e-15 1.6969408918349236e-15 7.663874877064056e-19
5.168117569889187 1.2745586172367781e-23 1.748483875127159e-15 1.747696833635106e-15 7.870414920533416e-19
5.20702561229733 1.3084216789184763e-23 1.8084515501843037e-15 1.8076422222148918e-15 8.093279694118892e-19
5.246226572918644 1.3431637918823043e-23 1.8704471939102853e-15 1.8696151646541767e-15 8.3202925610885185e-19
5.265937586045735 1.3608733485686957e-23 1.90222922339989e-15 1.9013856872141605e-15 8.435361857296743e-19
5.285722656980489 1.3788134465924748e-23 1.934547131987765e-15 1.9336919842966872e-15 8.551476910777923e-19
5.305582063971359 1.396987839464697e-23 1.9674109992749828e-15 1.966544135217669e-15 8.668640573140849e-19
5.3255160863122235 1.4164919122806867e-23 2.0023741640709395e-15 2.0014954107770666e-15 8.787532938733076e-19
5.365609099470188 1.4648913420610873e-23 2.0863822298960484e-15 2.0854788511437343e-15 9.033787523144425e-19
5.406003951863644 1.5151385314372078e-23 2.1741932082143433e-15 2.173264741641214e-15 9.284665731292855e-19
5.446702915881641 1.567322396042116e-23 2.2660081123297956e-15 2.265054092284378e-15 9.540200454183326e-19
5.487708281020852 1.6236746830144346e-23 2.365154245695284e-15 2.364174121623202e-15 9.801240720814741e-19
5.529022354014368 1.7016636791713487e-23 2.4974195558349907e-15 2.4964121325034717e-15 1.00742333151838e-18
5.570647458961463 1.784232639137846e-23 2.638314641069614e-15 2.6372793975451897e-15 1.035243524425067e-18
5.612585937458331 1.8717096771309494e-23 2.788501757752994e-15 2.7874381685339463e-15 1.0635892190476997e-18
5.654840148729818 1.9678044195084353e-23 2.95373614457321e-15 2.952643574576107e-15 1.0925699971022388e-18
5.67608639626678 2.0330643587238465e-23 3.0631591185874393e-15 3.0620513987949817e-15 1.1077197924580586e-18
5.686739436050992 2.0666977573973937e-23 3.1196777162405156e-15 3.118562365999679e-15 1.1153502408367126e-18
5.6974124697621304 2.1010213879520057e-23 3.177441535022482e-15 3.176318517169813e-15 1.1230178526690923e-18
5.718818669136295 2.1718056335895512e-23 3.296831223635436e-15 3.295692758678599e-15 1.1384649568371902e-18
5.740305295436557 2.2497827844539972e-23 3.4280331498977708e-15 3.4268789959985717e-15 1.154153899199877e-18
5.7835210386641895 2.4517515549211366e-23 3.763901176193231e-15 3.762714465536826e-15 1.186710656405051e-18
5.827062130521658 2.684268292889042e-23 4.1518820118097546e-15 4.150661863070039e-15 1.2201487397163946e-18
5.8489554468988025 2.8471513040050076e-23 4.420366647611168e-15 4.419128550606925e-15 1.2380970042417356e-18
5.870931020387893 3.021900092736968e-23 4.709301683726295e-15 4.708045440128156e-15 1.2562435981394834e-18
5.892989160043636 3.209468543946405e-23 5.020398588364846e-15 5.0191239983551874e-15 1.2745900096586654e-18
5.915130176081913 3.4227064656582227e-23 5.374070940256338e-15 5.372777352378243e-15 1.2935878780954853e-18
5.95966208400165 4.018424926557787e-23 6.356922662302237e-15 6.35558652122103e-15 1.336141081204828e-18
6.004529249263818 4.876474920705425e-23 7.772386571607415e-15 7.771002884618093e-15 1.3836869893232156e-18
6.027089341400364 5.472672263381364e-23 8.755410299880303e-15 8.753999509951128e-15 1.4107899291747363e-18
6.049734195844842 6.177067041651988e-23 9.91946025487548e-15 9.918020809831869e-15 1.4394450436130811e-18
6.095279466722835 8.211170383422498e-23 1.3285200698593815e-14 1.3283692138361735e-14 1.5085602320788696e-18
6.141167624020661 1.1340749998866412e-22 1.8486817820732164e-14 1.8485221171194066e-14 1.596649538102637e-18
6.164241091010745 1.3339228623474323e-22 2.1826282161271092e-14 2.1824631028707047e-14 1.6511325640439618e-18
6.187401249150058 1.5615515845889626e-22 2.5646851022723617e-14 2.5645143679673923e-14 1.707343049688952e-18
6.1990139391386085 1.6727044735471478e-22 2.7523981949571734e-14 2.7522245948676386e-14 1.736000895339515e-18
6.204828454712694 1.7312529870281402e-22 2.851410521629985e-14 2.8512354712669856e-14 1.7505036299933932e-18
6.210648424152782 1.7740033305024656e-22 2.9245618404808734e-14 2.924385534466118e-14 1.7630601475540412e-18
6.233982942956859 1.9192648976410487e-22 3.175922989835081e-14 3.175742218790794e-14 1.807710442859851e-18
6.239830258556775 1.937848838496801e-22 3.209682732416615e-14 3.2095012772313543e-14 1.8145518526061114e-18
6.245683058788269 1.9394885320969656e-22 3.2154117241912304e-14 3.215229582748009e-14 1.8214144322074185e-18
6.257405133728602 1.935563244143567e-22 3.214926685688485e-14 3.214743304801329e-14 1.833808871557283e-18
6.269149208991335 1.907080442711998e-22 3.173562472063718e-14 3.173378452569893e-14 1.840194938259088e-18
6.280915325867298 1.8355578799978328e-22 3.060275005229914e-14 3.0600910931916776e-14 1.8391203823710666e-18
6.304513850009849 1.6591458152541168e-22 2.7765505980492113e-14 2.7763675788505748e-14 1.8301919863652404e-18
6.32820103803542 1.440455540406189e-22 2.4196333345942247e-14 2.419451930173641e-14 1.8140442058403046e-18
6.3519772230701035 1.2399090312710495e-22 2.0905867258042778e-14 2.0904067076967746e-14 1.8001810750284042e-18
6.375842739491607 1.0711961219377022e-22 1.8129090685241946e-14 1.8127302043316482e-14 1.788641925461004e-18
6.399797922933955 9.360194202721402e-23 1.5900857795695723e-14 1.5899071992232055e-14 1.7858034636654577e-18
6.42384311029221 8.236429527760888e-23 1.4044405025209945e-14 1.4042620318005016e-14 1.7847072049275722e-18
6.447978639727206 7.417949061632457e-23 1.2696291057779258e-14 1.2694500573723485e-14 1.7904840557745463e-18
6.472204850670314 6.736292235701659e-23 1.1572910839802991e-14 1.1571113162057097e-14 1.797677745893666e-18
6.496522083828205 6.293810006298159e-23 1.085335430579416e-14 1.0851543786536966e-14 1.8105192571934026e-18
