Dust emission spectrum from A.P. Jones, M. Kohler, N. Ysard, M. Bocchio, and L. Verstraete (2017), A&A, 602A, 46J 
inside the DustPedia framework.

lambda    nu*dP/dnu     j_nu    j_nu(carb.) j_nu(sil)
 (um)   (erg s-1 H-1) (Jy cm2 sr-1 H-1)
0.9927057738263894 2.0150913604154784e-24 5.3098801895991104e-17 5.3098801879691217e-17 1.629989761272265e-26
1.0001793341362166 2.048344861159899e-24 5.438140033093317e-17 5.438140031130163e-17 1.9631550003598532e-26
1.0077091589558085 2.081551099686193e-24 5.567903704678038e-17 5.567903702316684e-17 2.3613552060145348e-26
1.0114953028030835 2.098132423907518e-24 5.633343045692183e-17 5.633343043103654e-17 2.5885288253824933e-26
1.0152956718711033 2.11469705966858e-24 5.69915054690159e-17 5.699150544064957e-17 2.836634159975798e-26
1.0229392996569957 2.1477535528479788e-24 5.83181505888849e-17 5.83181505548531e-17 3.403180178972521e-26
1.0267826658714554 2.164205293725288e-24 5.898565635891855e-17 5.898565632165978e-17 3.7258782927261984e-26
1.0306404723013447 2.1806331027981097e-24 5.965670004975202e-17 5.965670000897355e-17 4.077845154907689e-26
1.03451277320114 2.197035402634844e-24 6.033125304718804e-17 6.0331253002572e-17 4.461604706369261e-26
1.0383996230291617 2.2134106247022955e-24 6.100928638260055e-17 6.100928633380169e-17 4.8798863893637557e-26
1.0403485208654093 2.2215875939137386e-24 6.134959902916432e-17 6.134959897813545e-17 5.1028860055776855e-26
1.0423010764483396 2.2297572096685344e-24 6.169077073994998e-17 6.169077068659359e-17 5.335640813415319e-26
1.0462171883269815 2.246073607699157e-24 6.237567646281031e-17 6.237567640448974e-17 5.832056527196326e-26
1.0471985131304309 2.250147809804711e-24 6.254743397468342e-17 6.25474339150543e-17 5.962911535742544e-26
1.048180758391296 2.2542200049587468e-24 6.27194029773307e-17 6.271940291636492e-17 6.09657824250152e-26
1.0501480137395462 2.2623582787468823e-24 6.306397356140407e-17 6.306397349767827e-17 6.372577967635336e-26
1.0521189612883777 2.2704882381333167e-24 6.340938441537738e-17 6.340938434877208e-17 6.660529389786607e-26
1.0531058218030118 2.2745437954325802e-24 6.358222917888555e-17 6.358222911079406e-17 6.809149734581294e-26
1.0540936079674168 2.2785767422957344e-24 6.375470976165244e-17 6.375470969204267e-17 6.960976890105264e-26
1.058054026499678 2.294685713208702e-24 6.444667104438168e-17 6.444667096836814e-17 7.601354510002459e-26
1.0590464539527713 2.2987071346695958e-24 6.462016866330057e-17 6.462016858560002e-17 7.770054845892851e-26
1.06003981227728 2.3027261809222466e-24 6.479386822155736e-17 6.479386814213398e-17 7.942337594859128e-26
1.0620293250338977 2.310757054750618e-24 6.514187118693726e-17 6.514187110395784e-17 8.2979411943856e-26
1.0660195594769086 2.3267892788190812e-24 6.584027866539107e-17 6.584027857483691e-17 9.055415587274683e-26
1.070024785945596 2.342780908734744e-24 6.65418616662688e-17 6.654186156748057e-17 9.878822978381242e-26
1.0740450607676866 2.358730479486586e-24 6.724658809362958e-17 6.724658798589357e-17 1.0773602112132646e-25
1.07808044048254 2.374636537970533e-24 6.795442557613542e-17 6.795442545867928e-17 1.1745613804025235e-25
1.0861967418109137 2.4062842440103792e-24 6.937849204906737e-17 6.937849190959662e-17 1.3947075523807165e-25
1.0902777775684922 2.421959096724999e-24 7.009279813653979e-17 7.00927979846333e-17 1.5190647296735648e-25
1.0943741465085532 2.437583631879284e-24 7.081003071317255e-17 7.081003054777498e-17 1.6539758530251453e-25
1.1026131145906286 2.46867623450866e-24 7.225313956912781e-17 7.225313937323658e-17 1.9589125124389481e-25
1.1109141095355224 2.4995511573083975e-24 7.370754486528788e-17 7.370754463357904e-17 2.317088143464996e-25
1.1192775983109025 2.5301690505519066e-24 7.517211748105565e-17 7.517211720733116e-17 2.7372448991270085e-25
1.1277040513999907 2.560387746933138e-24 7.664261494753312e-17 7.664261462458669e-17 3.22946406974028e-25
1.1361939428280308 2.590353341427958e-24 7.81233596327909e-17 7.812335925225547e-17 3.8053543184558155e-25
1.1447477501889525 2.620055929762688e-24 7.96140640609591e-17 7.961406361313244e-17 4.478266316073274e-25
1.1533659546722406 2.649502014693558e-24 8.111493318663237e-17 8.111493266027829e-17 5.263540916564565e-25
1.1707974979042381 2.707720014410161e-24 8.415016537336183e-17 8.415016464894354e-17 7.244182956842014e-25
1.1884924949847024 2.764787778622344e-24 8.722232875086991e-17 8.722232775879748e-17 9.920724042024027e-25
1.2064549276569216 2.8211520595290792e-24 9.034560486021828e-17 9.034560350823898e-17 1.3519792978340584e-24
1.2246888378427687 2.876198514652957e-24 9.350052518863403e-17 9.350052335512015e-17 1.833513872502315e-24
1.2431983285522175 2.9297991536952546e-24 9.668246171640373e-17 9.668245924178404e-17 2.4746197031570074e-24
1.2619875648066055 2.9819350252192666e-24 9.989015447969412e-17 9.989015115563614e-17 3.324057968420664e-24
1.3004222497298317 3.0809506230554376e-24 1.0635026164271882e-16 1.0635025572867244e-16 5.914046377019664e-24
1.3400274889804893 3.1728665702219716e-24 1.128586755840166e-16 1.1285866525321722e-16 1.0330799344773675e-23
1.3808389325824078 3.2573518512943355e-24 1.1939252278521593e-16 1.1939250505896163e-16 1.772625429008371e-23
1.4228933163050095 3.3348258216300206e-24 1.2595485956614516e-16 1.2595482967469965e-16 2.989144549470337e-23
1.466228494730424 3.407154376397497e-24 1.3260591606537713e-16 1.3260586650440866e-16 4.956096850535338e-23
1.5108834753276823 3.472952299365285e-24 1.3928335608291197e-16 1.3928327525035168e-16 8.083256030391715e-23
1.5568984535646726 3.531101844649268e-24 1.4592844814628073e-16 1.4592831832710456e-16 1.298191761134689e-22
1.6043148490894465 3.581721700182245e-24 1.5252845612837524e-16 1.5252825044699648e-16 2.0568137881788953e-22
1.6531753430134553 3.624978455357179e-24 1.5907201483959186e-16 1.5907169372870128e-16 3.2111089060293835e-22
1.7035239163302658 3.6613904971195875e-24 1.655631643111861e-16 1.6556267020151857e-16 4.941096675567728e-22
1.755405889504358 3.693880639853611e-24 1.721194074015803e-16 1.7211865764951036e-16 7.497520699220917e-22
1.8088679632656115 3.7217498770000945e-24 1.7869955985042752e-16 1.7869843759300535e-16 1.1222574221784061e-21
1.8639582606462262 3.744530582494032e-24 1.8526910264656593e-16 1.8526744488971988e-16 1.6577568460533555e-21
1.9207263702978936 3.7625949955863e-24 1.918325967020133e-16 1.9183017919771773e-16 2.41750429561564e-21
1.979223391128241 3.776784591253947e-24 1.9842046522813388e-16 1.9841698345808824e-16 3.481770045607048e-21
2.039501978296691 3.788102302118103e-24 2.0507620074868532e-16 2.0507124652906462e-16 4.9542196207183895e-21
2.1016163906111602 3.799322454876552e-24 2.119478592262487e-16 2.1194089178769478e-16 6.967438553894314e-21
2.1656225393682647 3.8120644829783545e-24 2.1913534618447674e-16 2.1912565795385447e-16 9.688230622265853e-21
2.231578038680979 3.8264650864049325e-24 2.266622872509376e-16 2.266489635255922e-16 1.3323725345404488e-20
2.299542257339062 3.843505062480005e-24 2.3460555181382457e-16 2.3458742376646343e-16 1.8128047361189034e-20
2.369576372248914 3.865320799384195e-24 2.431227992571008e-16 2.4309838954859495e-16 2.4409708505827622e-20
2.4417434235010123 3.894431557883644e-24 2.524140560221245e-16 2.523815178728714e-16 3.253814925316201e-20
2.5161083711144245 3.935133800430238e-24 2.628199203227266e-16 2.6277696827775316e-16 4.295204497350458e-20
2.5927381535095444 3.9944383836538096e-24 2.749057463408283e-16 2.7484958027052806e-16 5.616607030023752e-20
2.6717017477616296 4.0806979200485776e-24 2.893955536760217e-16 2.8932277955638267e-16 7.277411963894834e-20
2.753070231689431 4.2064669893521606e-24 3.074002445557083e-16 3.073067899087383e-16 9.345464697002427e-20
2.836916847834745 4.400157858126928e-24 3.3134795674252124e-16 3.312289783245229e-16 1.1897841799849966e-19
2.9233170693905177 4.724290669991647e-24 3.665911412714178e-16 3.6644095625728293e-16 1.5018501413486549e-19
2.967498994190263 4.996945780246054e-24 3.936086650592344e-16 3.934407380661297e-16 1.6792699310470092e-19
3.0123486681368425 5.314826775198487e-24 4.249753944812791e-16 4.2478787961909347e-16 1.8751486218540345e-19
3.0578761833420214 6.020783318142032e-24 4.886999865880912e-16 4.884908195510633e-16 2.0916703702786974e-19
3.1040917844459814 6.929201849735177e-24 5.709357003126723e-16 5.707028222668481e-16 2.3287804582428276e-19
3.127460860933648 7.887590441786333e-24 6.547954733742004e-16 6.545498407437396e-16 2.456326304609156e-19
3.1510058709225794 9.163644094723462e-24 7.66455347757641e-16 7.661963767712242e-16 2.5897098641676184e-19
3.162844764501044 1.0350501234265483e-23 8.689778196487026e-16 8.687119292356618e-16 2.6589041304119894e-19
3.1747281389236908 1.1730371918864562e-23 9.88525225609133e-16 9.882522632816697e-16 2.729623274628342e-19
3.1986289994194426 1.557793370748225e-23 1.3226445743087974e-15 1.3223569652712743e-15 2.8760903752314415e-19
3.2227097969389145 2.4644169597336264e-23 2.108166079574563e-15 2.1078629044059903e-15 3.0317516857200633e-19
3.2348180950136065 3.324046537160363e-23 2.854213081041276e-15 2.853901586907615e-15 3.1149413366122047e-19
3.240889293275058 3.966705352910781e-23 3.4124285857686787e-15 3.4121127032441026e-15 3.158825245766371e-19
3.2469718861334385 4.710166236738321e-23 4.059608904091077e-15 4.059288480523803e-15 3.204235672738512e-19
3.2714166318528037 8.675453832976894e-23 7.533512155493636e-15 7.53317292821936e-15 3.3922727427620263e-19
3.2744851364798273 8.923351255109647e-23 7.756047232819835e-15 7.755705779108488e-15 3.4145371134648074e-19
3.2775565192852394 9.178365332613957e-23 7.985184641995419e-15 7.98484094972108e-15 3.4369227433818276e-19
3.283707930232385 8.933209624135469e-23 7.786485514173689e-15 7.786137797617036e-15 3.477165566540182e-19
3.2898708863219004 8.155606024924252e-23 7.12204191246545e-15 7.121690514166963e-15 3.513982984884183e-19
3.29141343181113 7.972225767611164e-23 6.965165805700134e-15 6.964813482369423e-15 3.523233307103737e-19
3.292184975758714 7.882118916456564e-23 6.888055605468317e-15 6.887702818930578e-15 3.527865377381726e-19
3.295272960557952 7.31338339461842e-23 6.397041514665677e-15 6.39668692268653e-15 3.5459197914580627e-19
3.3076538914384823 5.343026286149033e-23 4.691122815428107e-15 4.690760961694663e-15 3.618537334449167e-19
3.310756385682612 4.941985572020619e-23 4.343083024079221e-15 4.3427193378274e-15 3.6368625181997444e-19
3.313861789986515 4.5719541368615075e-23 4.021663130979658e-15 4.021297605351974e-15 3.655256276853593e-19
3.3200813396944477 4.053056557141786e-23 3.571912575986053e-15 3.571543102885046e-15 3.6947310100670135e-19
3.345076488085796 3.1276474451851007e-23 2.777111253876298e-15 2.776724210722943e-15 3.870431533559862e-19
3.3482140837626964 3.1624054372177346e-23 2.810607494300992e-15 2.8102180717399685e-15 3.8942256102355296e-19
3.3513546224236106 3.197547099007921e-23 2.8445054373796326e-15 2.8441136235591386e-15 3.918138204942251e-19
3.3576445397418455 3.454145722462252e-23 3.0785400351583162e-15 3.0781432250974872e-15 3.968100608290453e-19
3.3702598118196083 4.4003823363471396e-23 3.936617578913405e-15 3.936210286372509e-15 4.072925408949465e-19
3.382922481734668 4.616060323358868e-23 4.145080363042979e-15 4.144662843155119e-15 4.1751988785997347e-19
3.389271646505754 4.7277916544336665e-23 4.253379574825373e-15 4.252956863293087e-15 4.2271153228421694e-19
3.395632727569191 4.8482010989084875e-23 4.369892661414717e-15 4.369464599170287e-15 4.2806224443128113e-19
3.421196662673239 5.426362781525643e-23 4.927836591650776e-15 4.9273863355890965e-15 4.502560616804318e-19
3.4276182099114902 5.310054121896708e-23 4.831264581971496e-15 4.830809330874146e-15 4.552510973524355e-19
3.4340518103208963 4.8000495178103845e-23 4.375442630246264e-15 4.374982634281395e-15 4.599959648681577e-19
3.4469541582030403 4.073706255063373e-23 3.727302585809397e-15 3.726833440843005e-15 4.691449663925903e-19
3.472904465399547 3.870391776076354e-23 3.56793716928894e-15 3.567447006094638e-15 4.901631943027493e-19
3.4990501388274233 3.5593120274515014e-23 3.3058691585879263e-15 3.3053573883871524e-15 5.117702007734276e-19
3.5253949054701885 2.451550509088914e-23 2.2941301420178743e-15 2.293597225220825e-15 5.329167970497244e-19
3.5519380250092896 1.4103006677933445e-23 1.3296781250759374e-15 1.329123826426963e-15 5.542986489739879e-19
3.578680990867387 9.976530304756512e-24 9.477023239349056e-16 9.471245658112193e-16 5.777581236864321e-19
3.605625307711299 8.309708817456956e-24 7.953088812157647e-16 7.947063343781244e-16 6.025468376404802e-19
3.660119384959845 7.098579870557444e-24 6.896617782404593e-16 6.89006793588717e-16 6.549846517423192e-19
3.715437065384467 6.2431298685887945e-24 6.157178036621551e-16 6.150070103753892e-16 7.107932867660137e-19
3.8285932144167436 5.821150925967382e-24 5.915854960133454e-16 5.907528822761025e-16 8.326137372425864e-19
3.94519561050918 5.754320603568095e-24 6.026040266856067e-16 6.016356885200165e-16 9.68338165590327e-19
4.06534921144712 5.834315516362798e-24 6.295891022368199e-16 6.284705143737764e-16 1.1185878630435797e-18
4.189162171576248 6.000195713138741e-24 6.672091946241933e-16 6.659247412678904e-16 1.284453356302873e-18
4.316745939156006 6.229382280447803e-24 7.137907330969853e-16 7.123244455455085e-16 1.4662875514771632e-18
4.448215356677963 6.514453901736831e-24 7.691893338712442e-16 7.675266049649226e-16 1.6627289063215566e-18
4.58368876423945 6.856620312301524e-24 8.342470027791314e-16 8.323720001239005e-16 1.875002655230976e-18
4.723288106065518 7.263485252141611e-24 9.106655948328458e-16 9.085601635780432e-16 2.1054312548025703e-18
4.867139040275056 7.749929476790265e-24 1.001246328421406e-15 9.988963882644922e-16 2.349940156913649e-18
4.940699165968905 8.041414160265229e-24 1.0546060886301534e-15 1.0521276051136451e-15 2.4784835165082417e-18
5.015371051989984 8.343554207966811e-24 1.1107685989169105e-15 1.1081575288108838e-15 2.611070106026764e-18
5.091171501069577 8.709332408209001e-24 1.1769879769580815e-15 1.174237673562047e-15 2.7503033960342407e-18
5.129500256944802 8.897180861484097e-24 1.2114260489340274e-15 1.2086045920698094e-15 2.8214568642183626e-18
5.168117569889187 9.09287026465391e-24 1.2473915927726243e-15 1.2444974135110241e-15 2.8941792615999412e-18
5.20702561229733 9.331126647475841e-24 1.2897134557218819e-15 1.2867406942715808e-15 2.9727614503012403e-18
5.246226572918644 9.57546273712326e-24 1.333448497889088e-15 1.3303958573541418e-15 3.0526405349462146e-18
5.265937586045735 9.699971270696454e-24 1.355862309792802e-15 1.3527692434548878e-15 3.0930663379140262e-18
5.285722656980489 9.82607348659711e-24 1.3786493255614297e-15 1.3755155093337369e-15 3.1338162276926607e-18
5.305582063971359 9.953795071161069e-24 1.401816490760246e-15 1.3986416006497468e-15 3.174890110499216e-18
5.3255160863122235 1.0090691102236651e-23 1.4264351942685404e-15 1.4232186555924747e-15 3.216538676065691e-18
5.365609099470188 1.0429255457414001e-23 1.4853943519646775e-15 1.482091583692514e-15 3.3027682721638887e-18
5.406003951863644 1.0780552381845836e-23 1.5469875053058514e-15 1.54359707708817e-15 3.3904282176817987e-18
5.446702915881641 1.1145191467958584e-23 1.6113528616472557e-15 1.607873341288408e-15 3.479520358847872e-18
5.487708281020852 1.153856267411298e-23 1.6807849985831695e-15 1.6772146532179418e-15 3.570345365227904e-18
5.529022354014368 1.208112163390261e-23 1.773066546241504e-15 1.7694012952149467e-15 3.665251026558174e-18
5.570647458961463 1.2655182548168688e-23 1.8713004498323495e-15 1.8675386979299728e-15 3.761751902376575e-18
5.612585937458331 1.3262997019163632e-23 1.975941619199259e-15 1.97208176639889e-15 3.859852800368552e-18
5.654840148729818 1.39301364393609e-23 2.0909571648413645e-15 2.086997224976016e-15 3.9599398653485376e-18
5.67608639626678 1.4382351947086688e-23 2.166947264822741e-15 2.162935011080605e-15 4.0122537421354856e-18
5.686739436050992 1.46153572291972e-23 2.206186371452765e-15 2.202147791654224e-15 4.038579798541281e-18
5.6974124697621304 1.485310694505446e-23 2.2462826509991257e-15 2.2422176322129674e-15 4.065018786157994e-18
5.718818669136295 1.5343294750957673e-23 2.3291335295412007e-15 2.325015293432655e-15 4.118236108544837e-18
5.740305295436557 1.5883022349339036e-23 2.4201237341815344e-15 2.415951498215527e-15 4.172235966007566e-18
5.7835210386641895 1.7279516913823628e-23 2.652731835958135e-15 2.648447643308193e-15 4.28419264994101e-18
5.827062130521658 1.8886155511892006e-23 2.9212090888899593e-15 2.9168101473421317e-15 4.398941547826029e-18
5.8489554468988025 2.0010773459698852e-23 3.106788018948219e-15 3.102327443241288e-15 4.460575706931304e-18
5.870931020387893 2.1216945954318078e-23 3.306429605212527e-15 3.3019067882452336e-15 4.522816967292833e-18
5.892989160043636 2.251122410268333e-23 3.5213094055912123e-15 3.516723737260445e-15 4.585668330766949e-18
5.915130176081913 2.398220397442439e-23 3.765501563028976e-15 3.760850813184364e-15 4.650749844610327e-18
5.95966208400165 2.808985035079099e-23 4.443656645057242e-15 4.43885973736684e-15 4.796907690401324e-18
6.004529249263818 3.400360713892605e-23 5.4196767913362116e-15 5.4147164481044615e-15 4.9603432317500325e-18
6.027089341400364 3.811165520010745e-23 6.097262222648374e-15 6.092208526728084e-15 5.053695920289502e-18
6.049734195844842 4.2964219816012615e-23 6.89942116497886e-15 6.894268759158459e-15 5.152405820401383e-18
6.095279466722835 5.697476596617162e-23 9.218188945928438e-15 9.212797732947393e-15 5.3912129810416426e-18
6.141167624020661 7.85261380671923e-23 1.2800726660573177e-14 1.2795030207232654e-14 5.696453340523625e-18
6.164241091010745 9.22881330293017e-23 1.510062454503322e-14 1.5094738828720356e-14 5.885716312867714e-18
6.187401249150058 1.079605624152527e-22 1.7731392852591967e-14 1.772531209717338e-14 6.0807554185833494e-18
6.1990139391386085 1.1561357992060344e-22 1.9023958727819856e-14 1.9017778580327522e-14 6.180147492335124e-18
6.204828454712694 1.1964448494478835e-22 1.9705701349413736e-14 1.9699470926762022e-14 6.23042265171398e-18
6.210648424152782 1.225879716358318e-22 2.020943804240547e-14 2.020316422011691e-14 6.273822288561165e-18
6.233982942956859 1.3258950886437753e-22 2.194038300449729e-14 2.1933955435756558e-14 6.427568740725496e-18
6.239830258556775 1.3386908328197797e-22 2.2172899995022793e-14 2.2166449279484833e-14 6.450715537959948e-18
6.245683058788269 1.3398222914460889e-22 2.221245567041656e-14 2.2205981743380365e-14 6.473927036193865e-18
6.257405133728602 1.3371253364729959e-22 2.2209348825691876e-14 2.2202833198488145e-14 6.5156272037335725e-18
6.269149208991335 1.3175230454591595e-22 2.1924831273516075e-14 2.1918295178469083e-14 6.5360950469968895e-18
6.280915325867298 1.2682921347626871e-22 2.1145193848905073e-14 2.113866362711907e-14 6.530221786011354e-18
6.304513850009849 1.1468599900464048e-22 1.9192495089735945e-14 1.918600053351097e-14 6.49455622496928e-18
6.32820103803542 9.96332418206096e-23 1.6736088437332417e-14 1.6729654999252088e-14 6.433438080328079e-18
6.3519772230701035 8.582983205595799e-23 1.4471602597349824e-14 1.446522221193028e-14 6.380385419543322e-18
6.375842739491607 7.42169464379949e-23 1.2560592078342153e-14 1.2554256548139623e-14 6.335530202528217e-18
6.399797922933955 6.491429769637963e-23 1.1027474368827612e-14 1.1021153095188213e-14 6.321273639400931e-18
6.42384311029221 5.718041777016763e-23 9.750158657561695e-15 9.743845542102884e-15 6.31311545881615e-18
6.447978639727206 5.1548856393889783e-23 8.822914245362312e-15 8.816585194835582e-15 6.3290505267287514e-18
6.472204850670314 4.685878671249588e-23 8.050312274324515e-15 8.043962374976025e-15 6.3498993484892736e-18
6.496522083828205 4.381568051453572e-23 7.555790598983155e-15 7.549400115627928e-15 6.39048335522931e-18
