Dust emission spectrum from A.P. Jones, M. Kohler, N. Ysard, M. Bocchio, and L. Verstraete (2017), A&A, 602A, 46J 
inside the DustPedia framework.

lambda    nu*dP/dnu     j_nu    j_nu(carb.) j_nu(sil)
 (um)   (erg s-1 H-1) (Jy cm2 sr-1 H-1)
0.9927057738263894 4.6965802450695285e-20 1.2375755706190598e-12 1.2375755101932002e-12 6.04258592827133e-20
1.0001793341362166 4.7753322952524697e-20 1.2678004675165218e-12 1.267800394817844e-12 7.269867765778333e-20
1.0077091589558085 4.854424676265343e-20 1.298501350417632e-12 1.2985012630707929e-12 8.734683914733952e-20
1.0114953028030835 4.894095391653618e-20 1.3140313702497414e-12 1.3140312745548667e-12 9.569487464925316e-20
1.0152956718711033 4.933847537019157e-20 1.3296817035977066e-12 1.3296815987921804e-12 1.0480552594830068e-19
1.0229392996569957 5.0135526979025804e-20 1.3613345946227751e-12 1.3613344690362755e-12 1.2558649988762603e-19
1.0267826658714554 5.0534153967915926e-20 1.3773139955726097e-12 1.3773138581623104e-12 1.3741029927297214e-19
1.0306404723013447 5.0933531419581766e-20 1.3934147851253302e-12 1.3934146348285086e-12 1.502968216060632e-19
1.03451277320114 5.133364932720822e-20 1.4096374522145792e-12 1.4096372878778861e-12 1.643366927976531e-19
1.0383996230291617 5.1734498082589194e-20 1.425982496946451e-12 1.4259823173186323e-12 1.7962781857516176e-19
1.0403485208654093 5.1935193636960475e-20 1.4342010703779828e-12 1.434200882602661e-12 1.8777532163122431e-19
1.0423010764483396 5.2136068485640924e-20 1.4424504310530424e-12 1.4424502347771116e-12 1.962759304013313e-19
1.0462171883269815 5.253835175384093e-20 1.4590417783520148e-12 1.4590415639568457e-12 2.1439516915923869e-19
1.0471985131304309 5.26390329673848e-20 1.4632089610612885e-12 1.4632087418922195e-12 2.1916906908085384e-19
1.048180758391296 5.2739758084315116e-20 1.4673838990607427e-12 1.4673836750161606e-12 2.2404458226987973e-19
1.0501480137395462 5.294133953158683e-20 1.4757570752120683e-12 1.475756841103359e-12 2.3410870897323716e-19
1.0521189612883777 5.314309511943348e-20 1.4841613758904924e-12 1.4841611312860258e-12 2.446044668116278e-19
1.0531058218030118 5.324390552950967e-20 1.4883715189631573e-12 1.4883712689431192e-12 2.5002003769817524e-19
1.0540936079674168 5.334432540897375e-20 1.4925773272194913e-12 1.4925770716680929e-12 2.555513981310755e-19
1.058054026499678 5.374641712388316e-20 1.5094780275393597e-12 1.5094777486695911e-12 2.788697684090193e-19
1.0590464539527713 5.3847042563093674e-20 1.5137226138845116e-12 1.5137223288748444e-12 2.8500966737486626e-19
1.06003981227728 5.394770879734577e-20 1.517974982709505e-12 1.5179746914308256e-12 2.9127867917523435e-19
1.0620293250338977 5.414916324733672e-20 1.526503104204145e-12 1.5265027999897443e-12 3.0421440058459837e-19
1.0660195594769086 5.455255735159737e-20 1.5436531406753896e-12 1.5436528089234752e-12 3.317519144388338e-19
1.070024785945596 5.495659348565037e-20 1.5609287354772283e-12 1.5609283738154309e-12 3.6166179724811056e-19
1.0740450607676866 5.536126618391539e-20 1.5783305026956191e-12 1.5783301085582916e-12 3.9413732804940054e-19
1.07808044048254 5.576657047484041e-20 1.5958590724825607e-12 1.5958586430959979e-12 4.2938656284856223e-19
1.0861967418109137 5.65784415150399e-20 1.6312814932693743e-12 1.6312809841506993e-12 5.091186749742123e-19
1.0902777775684922 5.698360284571002e-20 1.64913609678959e-12 1.649135542688107e-12 5.54101482922624e-19
1.0943741465085532 5.738935709703005e-20 1.6671190622973354e-12 1.6671184594372741e-12 6.028600617934941e-19
1.1026131145906286 5.820263586402721e-20 1.7034729437542737e-12 1.703472230831082e-12 7.129231915580097e-19
1.1109141095355224 5.901826633324162e-20 1.7403490626346063e-12 1.7403482206581386e-12 8.419764676683198e-19
1.1192775983109025 5.983561392684236e-20 1.7777348903538835e-12 1.7777338972595324e-12 9.930943508460675e-19
1.1277040513999907 6.065178031270887e-20 1.8155496369475115e-12 1.815548467133353e-12 1.1698141581733163e-18
1.1361939428280308 6.147022530759834e-20 1.8539017212867553e-12 1.8539003450865243e-12 1.3762002311257135e-18
1.1447477501889525 6.229097555795784e-20 1.8927984178338044e-12 1.8927968009178263e-12 1.6169159775395299e-18
1.1533659546722406 6.311434964014548e-20 1.9322560336948e-12 1.932254136387178e-12 1.8973076222549415e-18
1.1707974979042381 6.477147222926446e-20 2.0129592685217265e-12 2.012956666036929e-12 2.6024847979046697e-18
1.1884924949847024 6.643964880237206e-20 2.0960092976179223e-12 2.096005745810073e-12 3.551807850284815e-18
1.2064549276569216 6.813008436351673e-20 2.1818227274240173e-12 2.1818179040232475e-12 4.82340076997546e-18
1.2246888378427687 6.983231245700121e-20 2.2701346435589255e-12 2.2701281255265532e-12 6.5180323720273014e-18
1.2431983285522175 7.154513187505181e-20 2.3609671211695105e-12 2.3609583559522797e-12 8.765217230504971e-18
1.2619875648066055 7.327125874563266e-20 2.4544724459530107e-12 2.4544607153822903e-12 1.1730570720583637e-17
1.3004222497298317 7.675392851341524e-20 2.6494421294597185e-12 2.649421415905117e-12 2.071355460140264e-17
1.3400274889804893 8.029217260107158e-20 2.8559878138481745e-12 2.855951910817517e-12 3.590303065720883e-17
1.3808389325824078 8.390018039481973e-20 3.0752140563175226e-12 3.0751529404521102e-12 6.111586541156351e-17
1.4228933163050095 8.760851466255492e-20 3.3089338848069273e-12 3.3088316639746198e-12 1.0222083230756561e-16
1.466228494730424 9.148010911480564e-20 3.5603915557697096e-12 3.5602234798544305e-12 1.680759152790342e-16
1.5108834753276823 9.550863899975614e-20 3.830390580725378e-12 3.830118784048889e-12 2.717966764892243e-16
1.5568984535646726 9.969145362267932e-20 4.1199092409778655e-12 4.119476511842818e-12 4.327291350473916e-16
1.6043148490894465 1.040518381146848e-19 4.431071856907521e-12 4.4303922802684e-12 6.795766391207889e-16
1.6531753430134553 1.086139471991693e-19 4.766218512311272e-12 4.765167056767435e-12 1.051455543838802e-15
1.7035239163302658 1.1340525072859892e-19 5.12803323625304e-12 5.126430085872018e-12 1.6031503810215963e-15
1.755405889504358 1.185068839329954e-19 5.52192575349792e-12 5.519515821078486e-12 2.409932419433442e-15
1.8088679632656115 1.2391572246202375e-19 5.949804740871043e-12 5.94623172226544e-12 3.573018605604502e-15
1.8639582606462262 1.296252151916238e-19 6.4135001089842014e-12 6.408273297225697e-12 5.226811758505524e-15
1.9207263702978936 1.3564574217903498e-19 6.915778866527031e-12 6.908231918720835e-12 7.546947806197325e-15
1.979223391128241 1.4199464837025488e-19 7.459955289686476e-12 7.449195480901962e-12 1.0759808784513137e-14
2.039501978296691 1.486848056963625e-19 8.049337802787737e-12 8.034185139365355e-12 1.5152663422383152e-14
2.1016163906111602 1.5577195976789603e-19 8.689847674789069e-12 8.668761321461458e-12 2.1086353327611465e-14
2.1656225393682647 1.632772476700267e-19 9.385942014355745e-12 9.356935952055378e-12 2.900606230036655e-14
2.231578038680979 1.7117213914302016e-19 1.013945448232084e-11 1.0100001187059906e-11 3.9453295260933546e-14
2.299542257339062 1.794513670395904e-19 1.0953618195809857e-11 1.0900540153245916e-11 5.307804256394045e-14
2.369576372248914 1.8812476016058935e-19 1.1832761282608124e-11 1.1762109883599858e-11 7.065139900826827e-14
2.4417434235010123 1.9720668342002048e-19 1.2781772666142115e-11 1.2688698716529156e-11 9.307394961296362e-14
2.5161083711144245 2.0674379101056217e-19 1.3808015034882337e-11 1.368662765890269e-11 1.2138737597964317e-13
2.5927381535095444 2.1682381617819568e-19 1.4922276246607234e-11 1.4765496815036114e-11 1.5677943157112348e-13
2.6717017477616296 2.2751666771782293e-19 1.6135061529851983e-11 1.5934483853079505e-11 2.0057767677248234e-13
2.753070231689431 2.3893200283862007e-19 1.7460675738260983e-11 1.7206428837689067e-11 2.542469005719168e-13
2.836916847834745 2.5140172290859644e-19 1.8931467891193554e-11 1.8612075822338443e-11 3.193920688551065e-13
2.9233170693905177 2.656685872098105e-19 2.0615105502257726e-11 2.0217445634885526e-11 3.976598673721982e-13
2.967498994190263 2.741745143313376e-19 2.1596685120307175e-11 2.115533668236666e-11 4.413484379405192e-13
3.0123486681368425 2.832294092438871e-19 2.264712191257172e-11 2.215791307891679e-11 4.892088336549347e-13
3.0578761833420214 2.9738798008371446e-19 2.413863681831014e-11 2.3596904861992942e-11 5.417319563172007e-13
3.1040917844459814 3.137465872997565e-19 2.5851336333569712e-11 2.5252642945229942e-11 5.98693388339769e-13
3.127460860933648 3.2835771771330817e-19 2.7258913706663516e-11 2.662979880401193e-11 6.291149026515899e-13
3.1510058709225794 3.467123923542114e-19 2.899933307173583e-11 2.833856401534739e-11 6.607690563884399e-13
3.162844764501044 3.630431472994612e-19 3.047933964147545e-11 2.98022109300452e-11 6.771287114302512e-13
3.1747281389236908 3.8144149831684003e-19 3.214429566158528e-11 3.145048969481185e-11 6.938059667734144e-13
3.1986289994194426 4.309188455513955e-19 3.658716770390477e-11 3.585895259249419e-11 7.28215111410577e-13
3.2227097969389145 5.44465901408931e-19 4.657590673939211e-11 4.581128713695152e-11 7.646196024405956e-13
3.2348180950136065 6.505966694320714e-19 5.586388468439541e-11 5.507985164290978e-11 7.840330414856524e-13
3.240889293275058 7.29785593590614e-19 6.278109916138224e-11 6.198682591189465e-11 7.942732494875836e-13
3.2469718861334385 8.215366020399751e-19 7.080678551565732e-11 7.000191670612763e-11 8.048688095296808e-13
3.2714166318528037 1.3018490814837167e-18 1.1304879339794103e-10 1.1220018470713064e-10 8.486086908103801e-13
3.2744851364798273 1.3318743014136685e-18 1.1576457873972152e-10 1.1491082857808998e-10 8.537501616315443e-13
3.2775565192852394 1.3626930307653573e-18 1.1855439467370558e-10 1.1769547853964698e-10 8.589161340585927e-13
3.283707930232385 1.3332243918972301e-18 1.1620831539207794e-10 1.1534018757635772e-10 8.681278157201964e-13
3.2898708863219004 1.239358424123352e-18 1.0822938987241757e-10 1.0735290347999793e-10 8.764863924195922e-13
3.29141343181113 1.2171736468162056e-18 1.0634189888157044e-10 1.0546331422517817e-10 8.785846563922607e-13
3.292184975758714 1.2062655238902717e-18 1.0541358347395785e-10 1.0453394839162276e-10 8.796350823351165e-13
3.295272960557952 1.138305757475438e-18 9.956799464816336e-11 9.868427825133246e-11 8.837163968308441e-13
3.3076538914384823 9.00996654148045e-19 7.910659118139301e-11 7.820649440216914e-11 9.000967792238555e-13
3.310756385682612 8.521685112653972e-19 7.488970862005924e-11 7.398548551751591e-11 9.042231025433131e-13
3.313861789986515 8.06910195594488e-19 7.097886125912899e-11 7.00704993331724e-11 9.08361925956621e-13
3.3200813396944477 7.43783513020675e-19 6.554879376869984e-11 6.463151813196427e-11 9.172756367355696e-13
3.345076488085796 6.341963530074296e-19 5.631177618230577e-11 5.5354746107320075e-11 9.570300749857007e-13
3.3482140837626964 6.388008581815471e-19 5.6773823439620696e-11 5.5811406620163035e-11 9.624168194576688e-13
3.3513546224236106 6.434454182681983e-19 5.724025117530781e-11 5.6272424655913416e-11 9.678265193944005e-13
3.3576445397418455 6.75460844154568e-19 6.020108640435029e-11 5.922194503548056e-11 9.791413688697213e-13
3.3702598118196083 7.909202236252048e-19 7.075636201252763e-11 6.975348931719679e-11 1.002872695330829e-12
3.382922481734668 8.188622457986553e-19 7.353131409312819e-11 7.250541622105768e-11 1.0258978720705143e-12
3.389271646505754 8.332518648634612e-19 7.496388846517275e-11 7.392632793842995e-11 1.0375605267427863e-12
3.395632727569191 8.490969193106289e-19 7.653276588218932e-11 7.548318623094213e-11 1.049579651247159e-12
3.421196662673239 9.258606196150563e-19 8.408007396115847e-11 8.298078491567168e-11 1.0992890454867815e-12
3.4276182099114902 9.124059270722882e-19 8.30137384413454e-11 8.190340110044679e-11 1.1103373408986046e-12
3.4340518103208963 8.506178488108233e-19 7.753731672820362e-11 7.641655160184109e-11 1.120765126362501e-12
3.4469541582030403 7.619993238519938e-19 6.97203448738688e-11 6.857960942862968e-11 1.1407354452391245e-12
3.472904465399547 7.38067553084e-19 6.803907222963755e-11 6.685226536548876e-11 1.1868068641488e-12
3.4990501388274233 7.015884848993474e-19 6.516314715767881e-11 6.392929355057655e-11 1.2338536071022633e-12
3.5253949054701885 5.704854226769243e-19 5.338530855851408e-11 5.2105908661445495e-11 1.279399897068592e-12
3.5519380250092896 4.456990833917365e-19 4.2021984041152625e-11 4.0696934017540016e-11 1.3250500236125991e-12
3.578680990867387 3.9780294934593053e-19 3.7788566570439433e-11 3.641349823957792e-11 1.375068330861526e-12
3.605625307711299 3.8016926831737723e-19 3.638538992159763e-11 3.495771951491658e-11 1.4276704066810442e-12
3.660119384959845 3.7079470728025124e-19 3.602452065739271e-11 3.448668956656681e-11 1.5378310908259066e-12
3.715437065384467 3.653211304008501e-19 3.6029159856742125e-11 3.437570965086102e-11 1.653450205881103e-12
3.8285932144167436 3.700652667914321e-19 3.760858414364827e-11 3.570842975053605e-11 1.9001543931122264e-12
3.94519561050918 3.786768512984804e-19 3.965580146222568e-11 3.74893021047247e-11 2.1664993575009713e-12
4.06534921144712 3.885552535908047e-19 4.192953785093556e-11 3.9477993864370996e-11 2.4515439865645744e-12
4.189162171576248 3.9890367435039252e-19 4.435725299979105e-11 4.160206130127188e-11 2.75519169851917e-12
4.316745939156006 4.093504845236146e-19 4.6905225797237914e-11 4.382964322830167e-11 3.0755825689362402e-12
4.448215356677963 4.196840045906875e-19 4.955387892781933e-11 4.6146443658376183e-11 3.4074352694431525e-12
4.58368876423945 4.2983348897202743e-19 5.229796656899113e-11 4.854746151950834e-11 3.750505049482795e-12
4.723288106065518 4.3981133270908925e-19 5.514171709754036e-11 5.103537563579906e-11 4.106341461741305e-12
4.867139040275056 4.496036023104211e-19 5.8086200320469066e-11 5.362204706423454e-11 4.464153256234522e-12
4.940699165968905 4.546265929092834e-19 5.962284287064983e-11 5.4978061262116016e-11 4.644781608533824e-12
5.015371051989984 4.594325289364195e-19 6.116376950919544e-11 5.6337890719619487e-11 4.825878789575969e-12
5.091171501069577 4.646819459605738e-19 6.279758744649301e-11 5.778598087686028e-11 5.011606569632731e-12
5.129500256944802 4.672143582408623e-19 6.361516673884541e-11 5.851078625822965e-11 5.1043804806157695e-12
5.168117569889187 4.697465744934129e-19 6.444147015212308e-11 5.924335265938459e-11 5.198117492738489e-12
5.20702561229733 4.727524351863956e-19 6.534207496263223e-11 6.004084821109063e-11 5.301226751541574e-12
5.246226572918644 4.757098040792026e-19 6.624583491106532e-11 6.084131352954e-11 5.4045213815253125e-12
5.265937586045735 4.771703263795768e-19 6.669888423732881e-11 6.124266349196305e-11 5.456220745365767e-12
5.285722656980489 4.786187639638059e-19 6.71527072375132e-11 6.164476181787897e-11 5.5079454196342065e-12
5.305582063971359 4.800551417085385e-19 6.760730046281527e-11 6.20476121427903e-11 5.559688320024984e-12
5.3255160863122235 4.815727911380549e-19 6.807585039732242e-11 6.246393537728088e-11 5.6119150200415435e-12
5.365609099470188 4.852929969731653e-19 6.911821075774961e-11 6.339817567932926e-11 5.720035078420341e-12
5.406003951863644 4.890011111911361e-19 7.01706723643637e-11 6.434236778997183e-11 5.828304574391885e-12
5.446702915881641 4.926998386808735e-19 7.12337062377076e-11 6.529703963275721e-11 5.936666604950375e-12
5.487708281020852 4.965671598316019e-19 7.233332752150332e-11 6.628773400477983e-11 6.045593516723483e-12
5.529022354014368 5.019846428476338e-19 7.3672975401756e-11 6.75138335765035e-11 6.1591418252525375e-12
5.570647458961463 5.075100398427873e-19 7.504465164666248e-11 6.87718396166399e-11 6.272812030022562e-12
5.612585937458331 5.131567623879041e-19 7.645088078589842e-11 7.006433445795575e-11 6.3865463279426716e-12
5.654840148729818 5.192002162306246e-19 7.793358068246012e-11 7.143264971743573e-11 6.500930965024374e-12
5.67608639626678 5.234328401940827e-19 7.886410828701228e-11 7.230319959325672e-11 6.560908693755563e-12
5.686739436050992 5.255865882476535e-19 7.933723068320932e-11 7.274631902507356e-11 6.590911658135762e-12
5.6974124697621304 5.277662443099026e-19 7.981576937147365e-11 7.319484657448128e-11 6.6209227969923745e-12
5.718818669136295 5.322062430787159e-19 8.078964951829667e-11 7.410868360882238e-11 6.680965909474303e-12
5.740305295436557 5.370825323306159e-19 8.183619937811998e-11 7.509466367491042e-11 6.7415357032095726e-12
5.7835210386641895 5.498848561898855e-19 8.441769937209363e-11 7.755105776825011e-11 6.866641603843517e-12
5.827062130521658 5.642759605732706e-19 8.727917461183807e-11 8.028602178338199e-11 6.9931528284560704e-12
5.8489554468988025 5.746333535247937e-19 8.921514311350024e-11 8.215327046735371e-11 7.061872646146517e-12
5.870931020387893 5.855600910280764e-19 9.125315324716352e-11 8.412243376543766e-11 7.130719481725891e-12
5.892989160043636 5.9710207731035e-19 9.340145837206426e-11 8.620177257600152e-11 7.1996857960627475e-12
5.915130176081913 6.1018253089856405e-19 9.580617679183365e-11 8.853486839887634e-11 7.271308392957333e-12
5.95966208400165 6.4724153820065845e-19 1.023899780976027e-10 9.495318488048709e-11 7.436793217115641e-12
6.004529249263818 7.004171359800048e-19 1.1163622966868873e-10 1.0401192032355681e-10 7.624309345131905e-12
6.027089341400364 7.374588562374696e-19 1.1798175653314378e-10 1.1024796412144984e-10 7.733792411693956e-12
6.049734195844842 7.807854992597725e-19 1.2538265612573176e-10 1.1753264267608568e-10 7.85001344964605e-12
6.095279466722835 9.058794928767013e-19 1.4656608387891154e-10 1.384265597570181e-10 8.139524121893424e-12
6.141167624020661 1.0964431117267186e-18 1.7873371742887046e-10 1.7021369662915933e-10 8.52002079971114e-12
6.164241091010745 1.2177663985706718e-18 1.9925674693770692e-10 1.9049563910789078e-10 8.761107829816117e-12
6.187401249150058 1.3538562705185473e-18 2.2235672787786303e-10 2.1334850654406367e-10 9.00822133379942e-12
6.1990139391386085 1.419826762530823e-18 2.336293517559947e-10 2.2449547262590846e-10 9.133879130086226e-12
6.204828454712694 1.4544013387608823e-18 2.395429963782704e-10 2.3034569642242016e-10 9.19729995585014e-12
6.210648424152782 1.4792914016819547e-18 2.438709730654869e-10 2.3462013905241866e-10 9.250834013068257e-12
6.233982942956859 1.5622522292011518e-18 2.585152667950783e-10 2.49079904862847e-10 9.43536193223121e-12
6.239830258556775 1.5719253554033156e-18 2.6035991918748424e-10 2.5090055142342233e-10 9.45936776406185e-12
6.245683058788269 1.5713140991530985e-18 2.605027920088396e-10 2.5101939664546745e-10 9.483395363372066e-12
6.257405133728602 1.565689330806598e-18 2.60057449754637e-10 2.505329317686993e-10 9.524517985937655e-12
6.269149208991335 1.5451486222939543e-18 2.5712736451220494e-10 2.47592260566853e-10 9.535103945351923e-12
6.280915325867298 1.4986321986178896e-18 2.4985464688634577e-10 2.4034665583448244e-10 9.507991051863336e-12
6.304513850009849 1.3860033007153466e-18 2.319451526272249e-10 2.2252539839598868e-10 9.419754231236214e-12
6.32820103803542 1.2494825849720452e-18 2.0988427818749577e-10 2.0058893632666364e-10 9.29534186083217e-12
6.3519772230701035 1.1251381488208265e-18 1.897073752426452e-10 1.805248277739205e-10 9.182547468724711e-12
6.375842739491607 1.0202128568826428e-18 1.7266241934500616e-10 1.6358069698743758e-10 9.081722357568594e-12
6.399797922933955 9.37003081070847e-19 1.5917567973006881e-10 1.5015202774522372e-10 9.023651984845095e-12
6.42384311029221 8.674606704982466e-19 1.4791565882831706e-10 1.3894150200368223e-10 8.974156824634787e-12
6.447978639727206 8.168524740867744e-19 1.398094901448467e-10 1.3085162100819223e-10 8.957869136654468e-12
6.472204850670314 7.744272916872949e-19 1.3304615781226775e-10 1.2409801840758125e-10 8.94813940468651e-12
6.496522083828205 7.465452589700249e-19 1.2873792174858183e-10 1.197727243099121e-10 8.96519743866974e-12
6.520930681187647 7.228396173210559e-19 1.2511833716946513e-10 1.1613213201334791e-10 8.986205156117202e-12
6.57002334288761 6.970712961699857e-19 1.2156639707089743e-10 1.1250148878032548e-10 9.064908290571986e-12
