Dust emission spectrum from A.P. Jones, M. Kohler, N. Ysard, M. Bocchio, and L. Verstraete (2017), A&A, 602A, 46J 
inside the DustPedia framework.

lambda    nu*dP/dnu     j_nu    j_nu(carb.) j_nu(sil)
 (um)   (erg s-1 H-1) (Jy cm2 sr-1 H-1)
0.9927057738263894 2.098323817004e-23 5.529202440219021e-16 5.529202390403347e-16 4.98156740548459e-24
1.0001793341362166 2.1334802843296448e-23 5.664165621729582e-16 5.664165561754358e-16 5.997522405000681e-24
1.0077091589558085 2.1686903394762024e-23 5.800990894381315e-16 5.800990822269441e-16 7.211187272232506e-24
1.0114953028030835 2.186312545777024e-23 5.870100683409223e-16 5.870100604376004e-16 7.903321943241972e-24
1.0152956718711033 2.203944668626611e-23 5.939674624370413e-16 5.93967453778009e-16 8.65903236797277e-24
1.0229392996569957 2.239216944292945e-23 6.080166450442921e-16 6.080166346602981e-16 1.0383993848447194e-23
1.0267826658714554 2.2568159005713706e-23 6.150976876472959e-16 6.150976762811702e-16 1.136612590242865e-23
1.0306404723013447 2.274419380399479e-23 6.222245942691107e-16 6.222245818320665e-16 1.2437044202719844e-23
1.03451277320114 2.29202629016092e-23 6.293973139288958e-16 6.29397300324522e-16 1.360437383867241e-23
1.0383996230291617 2.309635548792159e-23 6.366157958361115e-16 6.366157809597537e-16 1.487635765151263e-23
1.0403485208654093 2.3184407246270868e-23 6.402421818452042e-16 6.40242166290853e-16 1.5554351131133306e-23
1.0423010764483396 2.3272460881603878e-23 6.438799895235696e-16 6.438799732616665e-16 1.6261903040937302e-23
1.0462171883269815 2.3448568534375282e-23 6.511898449822009e-16 6.511898272115688e-16 1.777063205132027e-23
1.0471985131304309 2.3492594577392056e-23 6.53024437692813e-16 6.53024419524551e-16 1.8168261671809165e-23
1.048180758391296 2.353661994887314e-23 6.548618804066865e-16 6.548618618322805e-16 1.857440582328723e-23
1.0501480137395462 2.3624668034702126e-23 6.585453127975103e-16 6.585452933845754e-16 1.9412934946686146e-23
1.0521189612883777 2.3712711512387553e-23 6.622401360934243e-16 6.622401158057769e-16 2.028764763642036e-23
1.0531058218030118 2.375666871289227e-23 6.640900727711438e-16 6.640900520320799e-16 2.0739064071795566e-23
1.0540936079674168 2.3800419803061987e-23 6.659371302196682e-16 6.6593710901948e-16 2.1200188360990813e-23
1.058054026499678 2.3975396318997948e-23 6.733534230134503e-16 6.733533998686906e-16 2.3144759661387263e-23
1.0590464539527713 2.4019132713039602e-23 6.752145080394996e-16 6.75214484382558e-16 2.3656941502546828e-23
1.06003981227728 2.4062865705688e-23 6.770783962437717e-16 6.770783720638107e-16 2.4179960834522307e-23
1.0620293250338977 2.4150320876791184e-23 6.80814579120225e-16 6.808145538608371e-16 2.525938804764907e-23
1.0660195594769086 2.4325183726301517e-23 6.883205495683642e-16 6.88320522010199e-16 2.75581651420115e-23
1.070024785945596 2.4499975274490572e-23 6.958712867532345e-16 6.958712566969535e-16 3.0056280889217277e-23
1.0740450607676866 2.4674686088827164e-23 7.034667445837822e-16 7.034667118136786e-16 3.277010333483572e-23
1.07808044048254 2.4849306900645873e-23 7.111068786306372e-16 7.111068429133733e-16 3.5717263737455205e-23
1.0861967418109137 2.519795698132047e-23 7.265127810369121e-16 7.265127386479169e-16 4.2388995267889227e-23
1.0902777775684922 2.537131976968189e-23 7.342596319973427e-16 7.342595858413369e-16 4.61560054774445e-23
1.0943741465085532 2.5544545804975754e-23 7.420504672530365e-16 7.420504170116152e-16 5.024142104470615e-23
1.1026131145906286 2.5890554460161978e-23 7.577639460301718e-16 7.577638865590604e-16 5.947111157735449e-23
1.1109141095355224 2.623591850289219e-23 7.7365295544354e-16 7.736528851383311e-16 7.030520908559498e-23
1.1192775983109025 2.658028450800745e-23 7.89708604363797e-16 7.897085213580106e-16 8.300578659760931e-23
1.1277040513999907 2.692225207121992e-23 8.058903583984453e-16 8.05890260523642e-16 9.7874803452155e-23
1.1361939428280308 2.7263357389313525e-23 8.222449964870492e-16 8.222448812273672e-16 1.1525968197247632e-22
1.1447477501889525 2.7603549340403574e-23 8.387724554016627e-16 8.387723198420311e-16 1.3555963150452485e-22
1.1533659546722406 2.794292910449933e-23 8.554772990472411e-16 8.554771398142674e-16 1.5923297378365807e-22
1.1707974979042381 2.8620299609796733e-23 8.894578953445431e-16 8.894576764660616e-16 2.1887848156129453e-22
1.1884924949847024 2.929383017103126e-23 9.24149081280661e-16 9.241487819145813e-16 2.993660800210645e-22
1.2064549276569216 2.99683503151757e-23 9.597174057818823e-16 9.597169983430924e-16 4.0743878970525817e-22
1.2246888378427687 3.0638235718949245e-23 9.959990994990743e-16 9.959985476784757e-16 5.518205986767468e-22
1.2431983285522175 3.1302511012742816e-23 1.032973137015114e-15 1.032972393256112e-15 7.437590021509814e-22
1.2619875648066055 3.196163945069486e-23 1.0706648787290171e-15 1.070663881048068e-15 9.976809492048387e-22
1.3004222497298317 3.325764738908883e-23 1.1480091485345548e-15 1.1480073785255158e-15 1.77000903965893e-21
1.3400274889804893 3.45266839914579e-23 1.2281121003179156e-15 1.228109017462963e-15 3.082854952766168e-21
1.3808389325824078 3.577003759722845e-23 1.3110880321872937e-15 1.311082758348556e-15 5.27383873781828e-21
1.4228933163050095 3.699676970404283e-23 1.3973512206391691e-15 1.397342354985557e-15 8.865653611968625e-21
1.466228494730424 3.823104261431605e-23 1.4879462061141417e-15 1.4879315532898864e-15 1.465282425565555e-20
1.5108834753276823 3.9464444817994027e-23 1.5827284242296314e-15 1.5827046038057344e-15 2.382042389737516e-20
1.5568984535646726 4.069097932529556e-23 1.6816199950422481e-15 1.681581866486562e-15 3.812855568566003e-20
1.6043148490894465 4.191723861864479e-23 1.7850554082248436e-15 1.7849952037727234e-15 6.02044521201144e-20
1.6531753430134553 4.3150472968739796e-23 1.893537509519475e-15 1.8934438447228956e-15 9.366479657973438e-20
1.7035239163302658 4.440080388535758e-23 2.0077447611783942e-15 2.0076011473590723e-15 1.4361381932176373e-19
1.755405889504358 4.570343757109806e-23 2.1295892742393177e-15 2.1293721517016035e-15 2.1712253771448537e-19
1.8088679632656115 4.7055521710391764e-23 2.2593675814015573e-15 2.259043797179569e-15 3.2378422198822323e-19
1.8639582606462262 4.845477380277517e-23 2.3974093050144813e-15 2.3969328515828963e-15 4.76453431584829e-19
1.9207263702978936 4.9907216001192895e-23 2.5444755151451744e-15 2.5437834257751803e-15 6.920893699933947e-19
1.979223391128241 5.142289129643561e-23 2.7015980837357864e-15 2.7006053160165806e-15 9.927677192059875e-19
2.039501978296691 5.301163823873832e-23 2.8698869508844743e-15 2.8684801556768064e-15 1.4067952076678284e-18
2.1016163906111602 5.470234886835686e-23 3.051608773668135e-15 3.049638664531253e-15 1.9701091368820645e-18
2.1656225393682647 5.650967891448947e-23 3.2484413910084925e-15 3.2457138306467142e-15 2.7275603617777983e-18
2.231578038680979 5.84286917260083e-23 3.4610484111694003e-15 3.4573140412687256e-15 3.734369900674976e-18
2.299542257339062 6.046369520062872e-23 3.690672536305576e-15 3.685614860164837e-15 5.057676140739291e-18
2.369576372248914 6.262823425342894e-23 3.939220679082802e-15 3.932442472640819e-15 6.778206441982735e-18
2.4417434235010123 6.493840728546147e-23 4.208924083248645e-15 4.199932456179873e-15 8.991627068771673e-18
2.5161083711144245 6.742690286740511e-23 4.503311485185624e-15 4.4915011965939356e-15 1.1810288591687779e-17
2.5927381535095444 7.015030062973196e-23 4.8278929096935385e-15 4.8125284770875535e-15 1.5364432605983766e-17
2.6717017477616296 7.31678126710775e-23 5.188926030319304e-15 5.169123684827091e-15 1.9802345492211644e-17
2.753070231689431 7.657026528590157e-23 5.595602755034732e-15 5.570311787364846e-15 2.5290967669886563e-17
2.836916847834745 8.058575078220341e-23 6.06840134494895e-15 6.036384272103507e-15 3.2017072845442305e-17
2.9233170693905177 8.572399228359176e-23 6.6519311280310535e-15 6.611751816959387e-15 4.017931107166442e-17
2.967498994190263 8.922105283755775e-23 7.0279288683499105e-15 6.983144346143979e-15 4.4784522205929797e-17
3.0123486681368425 9.30876186014494e-23 7.443318307396087e-15 7.393466943643947e-15 4.985136375213988e-17
3.0578761833420214 1.0024373957139965e-22 8.136667871183377e-15 8.081233907064345e-15 5.543396411902988e-17
3.1040917844459814 1.0900213641547198e-22 8.981295745097021e-15 8.91977407316139e-15 6.152167193563059e-17
3.127460860933648 1.1761988247313796e-22 9.764321206917766e-15 9.69953503271156e-15 6.478617420620905e-17
3.1510058709225794 1.2882853747516578e-22 1.0775333532267246e-14 1.0707140921232653e-14 6.819261103459287e-17
3.162844764501044 1.3909223220816594e-22 1.1677508358164106e-14 1.1607551502901925e-14 6.995685526217884e-17
3.1747281389236908 1.5087410812793476e-22 1.2714248346712237e-14 1.2642490390066712e-14 7.175795664551943e-17
3.1986289994194426 1.832717762234232e-22 1.5560691488205378e-14 1.5485209464937114e-14 7.548202326826772e-17
3.2227097969389145 2.589266270981269e-22 2.2149674396248425e-14 2.2070242410008422e-14 7.943198624000633e-17
3.2348180950136065 3.302977009580883e-22 2.8361216011066757e-14 2.8279675127870045e-14 8.154088319670985e-17
3.240889293275058 3.836315120101055e-22 3.300258076956261e-14 3.291992748092308e-14 8.265328863953132e-17
3.2469718861334385 4.453863964945299e-22 3.8387065128773363e-14 3.830326080551815e-14 8.380432325520293e-17
3.2714166318528037 7.724291798499747e-22 6.707550668459954e-14 6.69869425644868e-14 8.856412011274309e-17
3.2744851364798273 7.929024235806217e-22 6.891792637645143e-14 6.882880042650273e-14 8.912594994869926e-17
3.2775565192852394 8.139460333622414e-22 7.081336522879755e-14 7.072367455717758e-14 8.969067161997001e-17
3.283707930232385 7.938565143450964e-22 6.91951998146324e-14 6.910449741415278e-14 9.070240047962038e-17
3.2898708863219004 7.298670406242565e-22 6.373706181940487e-14 6.364543700696744e-14 9.16248124374462e-17
3.29141343181113 7.147613418639867e-22 6.244719357815108e-14 6.235533709914651e-14 9.185647900457126e-17
3.292184975758714 7.073366342903312e-22 6.181299876869802e-14 6.172102629663484e-14 9.197247206317114e-17
3.295272960557952 6.607030298141775e-22 5.779192040850486e-14 5.76994964282282e-14 9.24239802766441e-17
3.3076538914384823 4.985760538522756e-22 4.3774471174055616e-14 4.36802328595376e-14 9.423831451802022e-17
3.310756385682612 4.654198942546631e-22 4.0901722846991346e-14 4.080702703718908e-14 9.469580980227568e-17
3.313861789986515 4.347660256789016e-22 3.824365782627182e-14 3.814850295263029e-14 9.515487364152922e-17
3.3200813396944477 3.918695325787281e-22 3.453501553284073e-14 3.4438874037207436e-14 9.614149563328406e-17
3.345076488085796 3.161639099133999e-22 2.8072932377391786e-14 2.797239611081328e-14 1.0053626657850549e-16
3.3482140837626964 3.191413828028769e-22 2.836388881991381e-14 2.8262757293382167e-14 1.0113152653164702e-16
3.3513546224236106 3.221491140002186e-22 2.865805813165235e-14 2.8556328569040004e-14 1.0172956261233391e-16
3.3576445397418455 3.436013459690409e-22 3.062379484516772e-14 3.052081522949592e-14 1.0297961567179793e-16
3.3702598118196083 4.220128206356174e-22 3.7753607783547464e-14 3.764800594488076e-14 1.0560183866669353e-16
3.382922481734668 4.403685423796558e-22 3.9543742274831197e-14 3.9435588168290726e-14 1.0815410654047364e-16
3.389271646505754 4.498572834268481e-22 4.047161805702264e-14 4.036216960587734e-14 1.0944845114528419e-16
3.395632727569191 4.601794937386678e-22 4.147796165210394e-14 4.136717927823786e-14 1.1078237386607383e-16
3.421196662673239 5.099677416237786e-22 4.6311641866093854e-14 4.6195333762880133e-14 1.1630810321370446e-16
3.4276182099114902 5.005627784449415e-22 4.5542873331213356e-14 4.542532822970941e-14 1.1754510150395111e-16
3.4340518103208963 4.584019578115883e-22 4.1785224518102644e-14 4.166650756719602e-14 1.1871695090662435e-16
3.4469541582030403 3.981700344424291e-22 3.643120308746943e-14 3.6310233124115457e-14 1.2096996335398076e-16
3.472904465399547 3.8158849375322183e-22 3.517689807659001e-14 3.505074365502094e-14 1.261544215690685e-16
3.4990501388274233 3.562067802610019e-22 3.308428707184475e-14 3.2952818644460584e-14 1.3146842738416942e-16
3.5253949054701885 2.653050690828075e-22 2.4826914785418708e-14 2.469026999424766e-14 1.3664479117105192e-16
3.5519380250092896 1.7929217668146274e-22 1.6904259550809817e-14 1.6762400830116358e-14 1.4185872069345773e-16
3.578680990867387 1.4554763789442068e-22 1.38260327450732e-14 1.3678457630073203e-14 1.475751149999932e-16
3.605625307711299 1.3232487574031516e-22 1.266460127471131e-14 1.251099887029426e-14 1.5360240441705132e-16
3.660119384959845 1.2353719521656686e-22 1.2002243164900208e-14 1.1835947481092907e-14 1.662956838073052e-16
3.715437065384467 1.1756460369383648e-22 1.1594604164648436e-14 1.1414882968003398e-14 1.7972119664504376e-16
3.8285932144167436 1.163687933816658e-22 1.1826199187873974e-14 1.1617468214352608e-14 2.087309735213636e-16
3.94519561050918 1.1802324217126853e-22 1.2359631288322131e-14 1.2119031849580183e-14 2.4059943874195116e-16
4.06534921144712 1.2078771102320049e-22 1.3034369898415412e-14 1.275902252832449e-14 2.7534737009091825e-16
4.189162171576248 1.2414967940652039e-22 1.380518429228792e-14 1.349208786000497e-14 3.1309643228294744e-16
4.316745939156006 1.2790625809126974e-22 1.4656076256102974e-14 1.430230360213476e-14 3.5377265396821785e-16
4.448215356677963 1.3197901422810756e-22 1.5583324645529526e-14 1.5186435004686002e-14 3.96889640843525e-16
4.58368876423945 1.3636403943147204e-22 1.6591452640079933e-14 1.61488927340056e-14 4.4255990607433113e-16
4.723288106065518 1.4111174050256724e-22 1.7692003582547258e-14 1.7200878003805416e-14 4.91125578741841e-16
4.867139040275056 1.463178809753587e-22 1.8903428934124086e-14 1.8361998228251813e-14 5.414307058722766e-16
4.940699165968905 1.4924615601729362e-22 1.957316234477995e-14 1.9005762120474928e-14 5.674002243050156e-16
5.015371051989984 1.5219399723594885e-22 2.0261426828379702e-14 1.9667579267709087e-14 5.938475606706192e-16
5.091171501069577 1.5562441785160314e-22 2.103124098923954e-14 2.0409919315306666e-14 6.213216739328779e-16
5.129500256944802 1.5734905175557887e-22 2.1424397574849435e-14 2.078917800694101e-14 6.352195679084263e-16
5.168117569889187 1.5912032068748705e-22 2.1828679447502258e-14 2.1179331500329278e-14 6.493479471729831e-16
5.20702561229733 1.6124830099737409e-22 2.228713759499361e-14 2.162242867084624e-14 6.647089241473826e-16
5.246226572918644 1.6340031068348129e-22 2.275460777376045e-14 2.2074387118008312e-14 6.802206557521316e-16
5.265937586045735 1.6448562892125907e-22 2.2991806731494295e-14 2.2303775093445363e-14 6.880316380489336e-16
5.285722656980489 1.6557732459238798e-22 2.3231361661291157e-14 2.2535483068526e-14 6.958785927651537e-16
5.305582063971359 1.666755287341693e-22 2.3473308734543563e-14 2.2769547803610253e-14 7.037609309333066e-16
5.3255160863122235 1.6784702250764911e-22 2.3727106273724442e-14 2.3015370663740267e-14 7.117356099841747e-16
5.365609099470188 1.7073310629827078e-22 2.4316787792224578e-14 2.3588552789135384e-14 7.282350030892014e-16
5.406003951863644 1.736873748534805e-22 2.4923787688298668e-14 2.417889397061102e-14 7.448937176876462e-16
5.446702915881641 1.7671354639428085e-22 2.5548944537461202e-14 2.4787237374522885e-14 7.617071629383141e-16
5.487708281020852 1.7994506604448743e-22 2.621201410598419e-14 2.543327685578162e-14 7.787372502025677e-16
5.529022354014368 1.8442338861858606e-22 2.70666044605066e-14 2.6270105152937727e-14 7.964993075688766e-16
5.570647458961463 1.8909941585324245e-22 2.796181094996642e-14 2.714737869894499e-14 8.144322510214194e-16
5.612585937458331 1.939880130672702e-22 2.8900631440356037e-14 2.8068099944818203e-14 8.32531495537838e-16
5.654840148729818 1.9930498160764896e-22 2.991630276524482e-14 2.906542736793461e-14 8.508753973102084e-16
5.67608639626678 2.0294735174301136e-22 3.057748902130148e-14 2.971702054963592e-14 8.604684716655679e-16
5.686739436050992 2.0481491684956193e-22 3.0916786441665014e-14 3.0051503562408717e-14 8.652828792562944e-16
5.6974124697621304 2.0671439728613706e-22 3.126207641628799e-14 3.0391967308515204e-14 8.70109107772787e-16
5.718818669136295 2.1061220511236252e-22 3.197122629917503e-14 3.109142955265082e-14 8.797967465242169e-16
5.740305295436557 2.148985491553031e-22 3.274446561951536e-14 3.1854866294598205e-14 8.895993249171588e-16
5.7835210386641895 2.2604089151422075e-22 3.47015412605911e-14 3.379166335621473e-14 9.098779043763744e-16
5.827062130521658 2.387331192912938e-22 3.692595655339462e-14 3.5995425424905167e-14 9.305311284894435e-16
5.8489554468988025 2.477082377997255e-22 3.8458132912296984e-14 3.7516466652301856e-14 9.41666259995117e-16
5.870931020387893 2.572646019496414e-22 4.0091882125306116e-14 3.913901228658867e-14 9.528698387174335e-16
5.892989160043636 2.6744819795898933e-22 4.183547952281953e-14 4.08713380913879e-14 9.641414314316154e-16
5.915130176081913 2.7900192024689985e-22 4.380673969323965e-14 4.283091878981125e-14 9.758209034283974e-16
5.95966208400165 3.114254038998178e-22 4.9265750731922026e-14 4.826341445100288e-14 1.0023362809191313e-15
6.004529249263818 3.580084229168094e-22 5.706129743405782e-14 5.602917324997751e-14 1.0321241840803169e-15
6.027089341400364 3.9039867329192137e-22 6.245761486706998e-14 6.140832828988893e-14 1.0492865771810532e-15
6.049734195844842 4.284893152023929e-22 6.880907562000866e-14 6.774161828663615e-14 1.0674573333725173e-15
6.095279466722835 5.384842290983208e-22 8.712364647848114e-14 8.601169386658965e-14 1.1119526118915163e-15
6.141167624020661 7.070619768748951e-22 1.152598016512091e-13 1.1409030744014922e-13 1.1694942110598773e-15
6.164241091010745 8.147072632211942e-22 1.3330628860060164e-13 1.3210078018878476e-13 1.2055084118168903e-15
6.187401249150058 9.365630455645033e-22 1.5382068155823187e-13 1.5257816012789782e-13 1.2425214303340582e-15
6.1990139391386085 9.959679843613685e-22 1.6388432779032068e-13 1.6262296645812069e-13 1.2613613321999832e-15
6.204828454712694 1.0271942041909565e-21 1.6918107194808407e-13 1.679101914015563e-13 1.2708805465277366e-15
6.210648424152782 1.049930203281636e-21 1.730879392890481e-13 1.7180892483075242e-13 1.2790144582956684e-15
6.233982942956859 1.1267732527297355e-21 1.8645394296920553e-13 1.851464691308977e-13 1.3074738383078188e-15
6.239830258556775 1.1363730906849607e-21 1.8821886487202596e-13 1.8690736629125612e-13 1.3114985807698625e-15
6.245683058788269 1.1368584534647196e-21 1.884758759601479e-13 1.8716034497073156e-13 1.3155309894162894e-15
6.257405133728602 1.1339502317367853e-21 1.883465637862066e-13 1.87023930202377e-13 1.3226335838295749e-15
6.269149208991335 1.1178476180201901e-21 1.860204305272946e-13 1.8469497238764002e-13 1.3254581396545452e-15
6.280915325867298 1.0786447820818046e-21 1.798335918522227e-13 1.7851060323370635e-13 1.3229886185163852e-15
6.304513850009849 9.824511107139244e-22 1.6441142146322207e-13 1.6309816710842919e-13 1.313254354792933e-15
6.32820103803542 8.640044990806919e-22 1.4513284364372076e-13 1.4383442583370906e-13 1.2984178100116827e-15
6.3519772230701035 7.555903836714887e-22 1.2739863864284267e-13 1.26113437957161e-13 1.2852006856816907e-15
6.375842739491607 6.642157676651214e-22 1.1241291524456143e-13 1.1113927516167908e-13 1.2736400828823247e-15
6.399797922933955 5.913131671541407e-22 1.004507639478973e-13 9.918261554100273e-14 1.2681484068945836e-15
6.42384311029221 5.305377886632753e-22 9.046501958223987e-14 8.920115574960033e-14 1.2638638326395594e-15
6.447978639727206 4.8632936626464e-22 8.323836053253204e-14 8.19740372357826e-14 1.2643232967494448e-15
6.472204850670314 4.494010902950281e-22 7.720684565509926e-14 7.59411169072229e-14 1.2657287478763584e-15
6.496522083828205 4.253753520657909e-22 7.335380960502494e-14 7.208282107876159e-14 1.2709885262633596e-15
