Dust emission spectrum from A.P. Jones, M. Kohler, N. Ysard, M. Bocchio, and L. Verstraete (2017), A&A, 602A, 46J 
inside the DustPedia framework.

lambda    nu*dP/dnu     j_nu    j_nu(carb.) j_nu(sil)
 (um)   (erg s-1 H-1) (Jy cm2 sr-1 H-1)
0.9927057738263894 1.912565206311925e-23 5.039717950166951e-16 5.039717900351276e-16 4.9815674054845865e-24
1.0001793341362166 1.9446611485643953e-23 5.162870688103202e-16 5.162870628127979e-16 5.9975224050006765e-24
1.0077091589558085 1.976815291805822e-23 5.287747770577991e-16 5.287747698466121e-16 7.211187272232499e-24
1.0114953028030835 1.992911648976656e-23 5.350832411966215e-16 5.350832332932996e-16 7.903321943241964e-24
1.0152956718711033 2.009019527034037e-23 5.414347499034413e-16 5.41434741244409e-16 8.659032367972762e-24
1.0229392996569957 2.0412502218460823e-23 5.542625580544925e-16 5.542625476704987e-16 1.0383993848447185e-23
1.0267826658714554 2.0573355401802272e-23 5.607290932145037e-16 5.607290818483778e-16 1.1366125902428636e-23
1.0306404723013447 2.073427656399774e-23 5.672382557798564e-16 5.672382433428121e-16 1.2437044202719826e-23
1.03451277320114 2.0895256229020512e-23 5.737900215567857e-16 5.737900079524119e-16 1.360437383867239e-23
1.0383996230291617 2.1056285038156295e-23 5.803843668724271e-16 5.803843519960694e-16 1.4876357651512603e-23
1.0403485208654093 2.113681498010824e-23 5.836974996330596e-16 5.836974840787086e-16 1.5554351131133277e-23
1.0423010764483396 2.1217353753504426e-23 5.870212687014638e-16 5.870212524395609e-16 1.6261903040937273e-23
1.0462171883269815 2.1378453261446102e-23 5.937007047944817e-16 5.937006870238495e-16 1.7770632051320233e-23
1.0471985131304309 2.1418731893883813e-23 5.953772072735143e-16 5.953771891052529e-16 1.8168261671809138e-23
1.048180758391296 2.1459011749462858e-23 5.970563664811703e-16 5.970563479067644e-16 1.8574405823287194e-23
1.0501480137395462 2.153957457607866e-23 6.00422653808006e-16 6.00422634395071e-16 1.941293494668611e-23
1.0521189612883777 2.1620140638569081e-23 6.03799564270217e-16 6.037995439825694e-16 2.0287647636420322e-23
1.0531058218030118 2.1660367887502458e-23 6.054904187326192e-16 6.054903979935552e-16 2.0739064071795528e-23
1.0540936079674168 2.1700409922737706e-23 6.071787316406575e-16 6.07178710440469e-16 2.1200188360990778e-23
1.058054026499678 2.18605717045084e-23 6.139581840654606e-16 6.139581609207007e-16 2.314475966138721e-23
1.0590464539527713 2.1900609894837695e-23 6.156595957305268e-16 6.156595720735855e-16 2.3656941502546772e-23
1.06003981227728 2.1940646918939806e-23 6.17363626183354e-16 6.17363602003393e-16 2.4179960834522248e-23
1.0620293250338977 2.202071694459439e-23 6.207795422282441e-16 6.207795169688562e-16 2.525938804764901e-23
1.0660195594769086 2.2180837270513394e-23 6.276427866572814e-16 6.276427590991162e-16 2.7558165142011425e-23
1.070024785945596 2.234092445635366e-23 6.345478995191713e-16 6.345478694628905e-16 3.0056280889217195e-23
1.0740450607676866 2.2500970425955175e-23 6.414948647589872e-16 6.414948319888837e-16 3.277010333483562e-23
1.07808044048254 2.2660967256050202e-23 6.484836682419537e-16 6.484836325246901e-16 3.5717263737455105e-23
1.0861967418109137 2.298052321514171e-23 6.625792655766734e-16 6.62579223187678e-16 4.238899526788908e-23
1.0902777775684922 2.3139477454725327e-23 6.696689157187842e-16 6.696688695627787e-16 4.6156005477444327e-23
1.0943741465085532 2.3298342099375313e-23 6.767998841339725e-16 6.767998338925514e-16 5.0241421044705934e-23
1.1026131145906286 2.361577455507528e-23 6.911857582250024e-16 6.911856987538907e-16 5.947111157735422e-23
1.1109141095355224 2.3932766228403358e-23 7.057368821488937e-16 7.057368118436848e-16 7.030520908559459e-23
1.1192775983109025 2.4249000015154456e-23 7.204454095822935e-16 7.204453265765069e-16 8.30057865976088e-23
1.1277040513999907 2.4563206606333668e-23 7.352747208155949e-16 7.352746229407913e-16 9.787480345215432e-23
1.1361939428280308 2.4876787569980145e-23 7.50267614365981e-16 7.502674991062989e-16 1.1525968197247536e-22
1.1447477501889525 2.5189700962794015e-23 7.654242962324588e-16 7.654241606728272e-16 1.3555963150452359e-22
1.1533659546722406 2.5502041997788392e-23 7.807491450473769e-16 7.807489858144027e-16 1.592329737836564e-22
1.1707974979042381 2.6125966671138414e-23 8.11939345358848e-16 8.119391264803663e-16 2.188784815612915e-22
1.1884924949847024 2.674712591515199e-23 8.438067571590518e-16 8.43806457792972e-16 2.99366080021059e-22
1.2064549276569216 2.736993772181516e-23 8.765048910113196e-16 8.765044835725298e-16 4.0743878970524843e-22
1.2246888378427687 2.7989344720022735e-23 9.098879711102334e-16 9.098874192896347e-16 5.518205986767298e-22
1.2431983285522175 2.860448975622965e-23 9.43939273887031e-16 9.439385301280288e-16 7.437590021509518e-22
1.2619875648066055 2.92158542908376e-23 9.786853749951875e-16 9.786843773142382e-16 9.976809492047874e-22
1.3004222497298317 3.042122966280116e-23 1.050099832798887e-15 1.0500980627898474e-15 1.770009039658779e-21
1.3400274889804893 3.1606248798986345e-23 1.124232393857951e-15 1.1242293110029982e-15 3.0828549527657373e-21
1.3808389325824078 3.277251031420984e-23 1.2012189235446714e-15 1.2012136497059335e-15 5.27383873781709e-21
1.4228933163050095 3.392869520880104e-23 1.2814714377491095e-15 1.2814625720954972e-15 8.865653611965434e-21
1.466228494730424 3.5097253992538505e-23 1.3659796425135067e-15 1.3659649896892512e-15 1.4652824255647235e-20
1.5108834753276823 3.62710600635154e-23 1.454657173164917e-15 1.4546333527410196e-15 2.38204238973541e-20
1.5568984535646726 3.744515502583268e-23 1.5474810990786979e-15 1.5474429705230126e-15 3.8128555685608114e-20
1.6043148490894465 3.86260321100758e-23 1.6448986094634703e-15 1.6448384050113501e-15 6.020445211998984e-20
1.6531753430134553 3.982079983297573e-23 1.7474241405750344e-15 1.747330475778455e-15 9.366479657944329e-20
1.7035239163302658 4.103911466530524e-23 1.8557336863857644e-15 1.8555900725664432e-15 1.4361381932110087e-19
1.755405889504358 4.2313506607526604e-23 1.971632652066136e-15 1.971415529528422e-15 2.1712253771301256e-19
1.8088679632656115 4.364178297743247e-23 2.0954571550738485e-15 2.0951333708518633e-15 3.237842219850293e-19
1.8639582606462262 4.502210734220071e-23 2.22757038373319e-15 2.2270939303016116e-15 4.764534315780638e-19
1.9207263702978936 4.6460176818175886e-23 2.3687312540202264e-15 2.3680391646502473e-15 6.920893699793905e-19
1.979223391128241 4.796527901523689e-23 2.519945934708622e-15 2.5189531669894455e-15 9.927677191776361e-19
2.039501978296691 4.9546348917751393e-23 2.6822868514770133e-15 2.6808800562694025e-15 1.4067952076116577e-18
2.1016163906111602 5.122974963273728e-23 2.8578873976381576e-15 2.855917288501385e-15 1.9701091367730715e-18
2.1656225393682647 5.302867100389336e-23 3.0483367293571773e-15 3.0456091689956073e-15 2.727560361570532e-18
2.231578038680979 5.493807172715045e-23 3.254280050554791e-15 3.250545680654503e-15 3.734369900288495e-18
2.299542257339062 5.696138234467969e-23 3.4768931794847474e-15 3.4718355033447147e-15 5.057676140032268e-18
2.369576372248914 5.9110207116386e-23 3.7179421229648756e-15 3.7111639165241615e-15 6.7782064407130036e-18
2.4417434235010123 6.139835278002528e-23 3.979478655083993e-15 3.970487028017462e-15 8.99162706653184e-18
2.5161083711144245 6.385458323170868e-23 4.264723216111163e-15 4.2529129275233595e-15 1.1810288587804268e-17
2.5927381535095444 6.652905449038341e-23 4.5786710474424425e-15 4.5633066148430816e-15 1.5364432599361054e-17
2.6717017477616296 6.947330684417195e-23 4.92691850604662e-15 4.9071161605655224e-15 1.9802345481097595e-17
2.753070231689431 7.276661550455429e-23 5.3176395911848464e-15 5.2923486235333225e-15 2.5290967651525048e-17
2.836916847834745 7.661090178185744e-23 5.769080698488019e-15 5.73706362567246e-15 3.2017072815558054e-17
2.9233170693905177 8.145824657671447e-23 6.320921735025064e-15 6.280742424001348e-15 4.0179311023718233e-17
2.967498994190263 8.470806409251074e-23 6.672441425923063e-15 6.627656903777557e-15 4.478452214550392e-17
3.0123486681368425 8.828582666747543e-23 7.059365356966881e-15 7.009513993290638e-15 4.985136367624226e-17
3.0578761833420214 9.479537807217307e-23 7.694430698559007e-15 7.638996734535122e-15 5.543396402388509e-17
3.1040917844459814 1.0272043397449688e-22 8.463711142992951e-15 8.402189471176226e-15 6.152167181672705e-17
3.127460860933648 1.104564850967618e-22 9.169645277601968e-15 9.104859103528753e-15 6.47861740732128e-17
3.1510058709225794 1.2049029356077327e-22 1.0077915390201508e-14 1.0009722779315672e-14 6.819261088583973e-17
3.162844764501044 1.2966040178297147e-22 1.0885657678406819e-14 1.0815700823302286e-14 6.995685510453333e-17
3.1747281389236908 1.4017043435441553e-22 1.1812243567579977e-14 1.174048561110149e-14 7.175795647848512e-17
3.1986289994194426 1.6902031354525822e-22 1.4350670946252148e-14 1.4275188923171712e-14 7.548202308044264e-17
3.2227097969389145 2.363120976872653e-22 2.0215132287973333e-14 2.013570030194768e-14 7.943198602565654e-17
3.2348180950136065 2.9975225396963813e-22 2.5738412347338105e-14 2.5656871464372867e-14 8.154088296523559e-17
3.240889293275058 3.4715671773567873e-22 2.9864771944141514e-14 2.978211865574399e-14 8.265328839752389e-17
3.2469718861334385 4.02052329812472e-22 3.465217862772327e-14 3.456837430472202e-14 8.380432300124169e-17
3.2714166318528037 6.925059880289563e-22 6.013520882028727e-14 6.004664470048352e-14 8.856411980374267e-17
3.2744851364798273 7.10692116922745e-22 6.177232599343411e-14 6.168320004380022e-14 8.912594963389447e-17
3.2775565192852394 7.293829177379163e-22 6.34563679020161e-14 6.336667723071683e-14 8.969067129925631e-17
3.283707930232385 7.115567867524917e-22 6.202167916882899e-14 6.193097676867683e-14 9.070240015215718e-17
3.2898708863219004 6.547440377087963e-22 5.717679917651758e-14 5.708517436441032e-14 9.16248121072694e-17
3.29141343181113 6.4133077459278895e-22 5.603171951658589e-14 5.593986303791217e-14 9.185647867371377e-17
3.292184975758714 6.347376677207718e-22 5.5468693082233345e-14 5.5376720610501364e-14 9.197247173197292e-17
3.295272960557952 5.933532143691116e-22 5.1900808974032634e-14 5.180838499408766e-14 9.242397994496509e-17
3.3076538914384823 4.494103790403174e-22 3.9457774858257946e-14 3.936353654407304e-14 9.423831418489778e-17
3.310756385682612 4.1995503131245964e-22 3.6906209878392413e-14 3.6811514068923606e-14 9.46958094687924e-17
3.313861789986515 3.9271569179848194e-22 3.454475201160504e-14 3.444959713829734e-14 9.515487330768519e-17
3.3200813396944477 3.5460776462534903e-22 3.125117836748896e-14 3.1155036872192695e-14 9.614149529627224e-17
3.345076488085796 2.8744502287238016e-22 2.552291528632869e-14 2.542237902011487e-14 1.0053626621381458e-16
3.3482140837626964 2.9010230788326006e-22 2.5783022981647053e-14 2.5681891455485347e-14 1.0113152616171299e-16
3.3513546224236106 2.927863110123423e-22 2.604597298733547e-14 2.5944243425098393e-14 1.0172956223708614e-16
3.3576445397418455 3.1187208215511193e-22 2.779589420675312e-14 2.7692914591469708e-14 1.0297961528341125e-16
3.3702598118196083 3.8155455786422923e-22 3.4134178918864823e-14 3.40285770806183e-14 1.0560183824653083e-16
3.382922481734668 3.979228359441478e-22 3.5732248231935155e-14 3.5624094125840876e-14 1.0815410609427439e-16
3.389271646505754 4.063819455234392e-22 3.6560339224048305e-14 3.6450890773362795e-14 1.094484506855031e-16
3.395632727569191 4.1559474144642745e-22 3.7459345718521526e-14 3.7348563345129915e-14 1.1078237339162087e-16
3.421196662673239 4.600561990385469e-22 4.1779030689881843e-14 4.1662722587207066e-14 1.1630810267477954e-16
3.4276182099114902 4.51725550912277e-22 4.109949926677034e-14 4.098195416581676e-14 1.1754510095356819e-16
3.4340518103208963 4.1427082481093443e-22 3.7762490170557604e-14 3.764377322020998e-14 1.1871695034762124e-16
3.4469541582030403 3.6074114526148455e-22 3.300658710651335e-14 3.2885617143731504e-14 1.2096996278184694e-16
3.472904465399547 3.460386339852605e-22 3.189971908884154e-14 3.177356466789851e-14 1.2615442094304136e-16
3.4990501388274233 3.2353037636710675e-22 3.0049320903853675e-14 2.991785247715207e-14 1.314684267016148e-16
3.5253949054701885 2.4285246982524036e-22 2.2725828777503837e-14 2.2589183987058507e-14 1.3664479044533746e-16
3.5519380250092896 1.6644788648020618e-22 1.569325737923312e-14 1.5551398659306094e-14 1.4185871992702836e-16
3.578680990867387 1.3651322374906034e-22 1.296782502962464e-14 1.2820249915453727e-14 1.4757511417091162e-16
3.605625307711299 1.2483175674969165e-22 1.1947446893954905e-14 1.1793844490443592e-14 1.5360240351131158e-16
3.660119384959845 1.1716913817783743e-22 1.1383555255296969e-14 1.121725957257762e-14 1.66295682719348e-16
3.715437065384467 1.119934478972749e-22 1.104515863282035e-14 1.0865437437478873e-14 1.7972119534147786e-16
3.8285932144167436 1.1120383323011382e-22 1.1301300323026675e-14 1.1092569351372547e-14 2.0873097165412941e-16
3.94519561050918 1.1293828948371119e-22 1.1827124816032805e-14 1.158652537994118e-14 2.4059943609162287e-16
4.06534921144712 1.1564891031639085e-22 1.247983476665909e-14 1.2204487400294833e-14 2.7534736636426094e-16
4.189162171576248 1.1887959756878314e-22 1.3219162231230696e-14 1.2906065804139728e-14 3.1309642709097054e-16
4.316745939156006 1.224485147871434e-22 1.4030703399096763e-14 1.367693075229826e-14 3.537726467985003e-16
4.448215356677963 1.2628433486654418e-22 1.4910929585129536e-14 1.4514039954103294e-14 3.9688963102624315e-16
4.58368876423945 1.3038236311266897e-22 1.5863660329398327e-14 1.5421100436658555e-14 4.4255989273977383e-16
4.723288106065518 1.347863907896098e-22 1.689895752285053e-14 1.6407831962083434e-14 4.911255607671022e-16
4.867139040275056 1.3957887487820944e-22 1.8032788093818697e-14 1.749135741200519e-14 5.414306818135068e-16
4.940699165968905 1.422573045261488e-22 1.8656596528345227e-14 1.808919633181003e-14 5.674001965351978e-16
5.015371051989984 1.449464659287829e-22 1.9296570605838425e-14 1.8702723077163115e-14 5.938475286753103e-16
5.091171501069577 1.4806079377008241e-22 2.0009085192569115e-14 1.938776355546249e-14 6.21321637106622e-16
5.129500256944802 1.4962322057423e-22 2.0372460642414004e-14 1.973724111398766e-14 6.352195284263477e-16
5.168117569889187 1.5122536190155108e-22 2.0745621520991992e-14 2.0096273616132877e-14 6.493479048591132e-16
5.20702561229733 1.5314545546297407e-22 2.1167192564756718e-14 2.0502483685967378e-14 6.647088787893434e-16
5.246226572918644 1.5508427827913688e-22 2.159654353995805e-14 2.091632293280571e-14 6.802206071523432e-16
5.265937586045735 1.5606096257887202e-22 2.1814206587385578e-14 2.1126174999634932e-14 6.8803158775064e-16
5.285722656980489 1.5704263480558758e-22 2.2033900199752342e-14 2.13380216590377e-14 6.95878540714643e-16
5.305582063971359 1.5802940351982648e-22 2.225565448106595e-14 2.1551893603990598e-14 7.037608770753524e-16
5.3255160863122235 1.5908112227928443e-22 2.248794549984896e-14 2.1776209945594356e-14 7.117355542546004e-16
5.365609099470188 1.6166846603961065e-22 2.302574976004812e-14 2.2297514816669306e-14 7.282349433788241e-16
5.406003951863644 1.6431259906535181e-22 2.3578526286508064e-14 2.28336326327682e-14 7.448936537398659e-16
5.446702915881641 1.670166870980814e-22 2.4146989082425507e-14 2.3385281987943674e-14 7.617070944818347e-16
5.487708281020852 1.6990007250428663e-22 2.47487924786395e-14 2.397005530170871e-14 7.787371769307844e-16
5.529022354014368 1.7389374321892675e-22 2.5521237849054753e-14 2.472473862005991e-14 7.964992289948471e-16
5.570647458961463 1.7805645740229698e-22 2.6328907351928272e-14 2.5514475185129854e-14 8.144321667984141e-16
5.612585937458331 1.8240101197298466e-22 2.717438226222345e-14 2.6341850856924477e-14 8.325314052989688e-16
5.654840148729818 1.8711975914818378e-22 2.8087262660884314e-14 2.7236387360256487e-14 8.50875300627821e-16
5.67608639626678 1.9035429636518533e-22 2.868012988232776e-14 2.7819661510896472e-14 8.604683714312907e-16
5.686739436050992 1.9201162426412285e-22 2.898413100473257e-14 2.811884822753078e-14 8.652827772017954e-16
5.6974124697621304 1.9369651898003872e-22 2.929334123515856e-14 2.8423232231290583e-14 8.701090038679641e-16
5.718818669136295 1.9715169023586312e-22 2.992790137890091e-14 2.904810474007427e-14 8.797966388266456e-16
5.740305295436557 2.0094998720725036e-22 3.0619098980489726e-14 2.972949976724865e-14 8.895992132410676e-16
5.7835210386641895 2.1082547632230752e-22 3.236568797961082e-14 3.1455810195762084e-14 9.098777838487379e-16
5.827062130521658 2.220578399340571e-22 3.434671391253704e-14 3.3416182914197805e-14 9.305309983392427e-16
5.8489554468988025 2.300083346354367e-22 3.5710120837796015e-14 3.476845471361373e-14 9.416661241822643e-16
5.870931020387893 2.384649979350013e-22 3.716216889447104e-14 3.620929919745698e-14 9.528696970140543e-16
5.892989160043636 2.4746776818166204e-22 3.8710048627470255e-14 3.77459073438688e-14 9.641412836014525e-16
5.915130176081913 2.5767831963994146e-22 4.045867162157551e-14 3.948285087256667e-14 9.758207490088365e-16
5.95966208400165 2.863451846434241e-22 4.529820083164181e-14 4.4295864721211966e-14 1.0023361104298443e-15
6.004529249263818 3.2751209756546345e-22 5.220062997450113e-14 5.1168505981289584e-14 1.0321239932115387e-15
6.027089341400364 3.561368710872921e-22 5.697626825104719e-14 5.5926981877743323e-14 1.0492863733038745e-15
6.049734195844842 3.897772156034275e-22 6.259248236036971e-14 6.152502524545619e-14 1.0674571149135157e-15
6.095279466722835 4.869156903115695e-22 7.87801539491049e-14 7.766820159528365e-14 1.1119523538212521e-15
6.141167624020661 6.357055614515101e-22 1.0362782799510648e-13 1.0245833409977753e-13 1.1694938953289462e-15
6.164241091010745 7.307144148724444e-22 1.195629781039023e-13 1.1835747004578014e-13 1.2055080581221867e-15
6.187401249150058 8.381743705957121e-22 1.3766137107402542e-13 1.3641885003934253e-13 1.242521034682858e-15
6.1990139391386085 8.905503364355064e-22 1.465380871090557e-13 1.4527672619411816e-13 1.2613609149374685e-15
6.204828454712694 9.180738528676301e-22 1.5120871780812637e-13 1.4993783769010496e-13 1.270880118021414e-15
6.210648424152782 9.381071856961354e-22 1.5465317513190594e-13 1.5337416111146186e-13 1.2790140204440882e-15
6.233982942956859 1.0057685194615015e-21 1.6643056241669356e-13 1.6512308904944383e-13 1.3074733672496433e-15
6.239830258556775 1.014194956356471e-21 1.6798235105099825e-13 1.6667085294587677e-13 1.3114981051214058e-15
6.245683058788269 1.0145791802640312e-21 1.6820361334202482e-13 1.6688808283288837e-13 1.315530509136405e-15
6.257405133728602 1.0119246150177862e-21 1.6807838537795786e-13 1.6675575228250752e-13 1.3226330954502889e-15
6.269149208991335 9.976296972210126e-22 1.6601502994884534e-13 1.6468957230016683e-13 1.325457648678555e-15
6.280915325867298 9.629579642474174e-22 1.6054607818070718e-13 1.5922309004892022e-13 1.3229881317869951e-15
6.304513850009849 8.779372851490258e-22 1.4692122125244773e-13 1.45607967369515e-13 1.3132538829327406e-15
6.32820103803542 7.7333905416748e-22 1.2990313841130782e-13 1.2860472105030477e-13 1.2984173610030607e-15
6.3519772230701035 6.776247879074082e-22 1.1425300977306008e-13 1.1296780951475318e-13 1.2852002583068726e-15
6.375842739491607 5.969338867473348e-22 1.010260245001685e-13 9.975238482564856e-14 1.2736396745199144e-15
6.399797922933955 5.325946908554583e-22 9.047581982404763e-14 8.920767181265206e-14 1.2681480113955648e-15
6.42384311029221 4.789386951528973e-22 8.166656430801087e-14 8.04027008599789e-14 1.2638634480320332e-15
6.447978639727206 4.399189760985605e-22 7.529492742510693e-14 7.403060450782847e-14 1.264322917278482e-15
6.472204850670314 4.0731306270525247e-22 6.997614702034937e-14 6.87104186482469e-14 1.2657283721025074e-15
6.496522083828205 3.860972446173673e-22 6.658050033492939e-14 6.530951218576426e-14 1.2709881491651094e-15
6.520930681187647 3.681626780984049e-22 6.372631077174311e-14 6.24494684541485e-14 1.276842317594606e-15
6.57002334288761 3.4949751322610985e-22 6.095094390140506e-14 5.965701994328056e-14 1.2939239581245073e-15
