Dust emission spectrum from A.P. Jones, M. Kohler, N. Ysard, M. Bocchio, and L. Verstraete (2017), A&A, 602A, 46J 
inside the DustPedia framework.

lambda    nu*dP/dnu     j_nu    j_nu(carb.) j_nu(sil)
 (um)   (erg s-1 H-1) (Jy cm2 sr-1 H-1)
0.9927057738263894 1.0098236504984623e-20 2.660942675901741e-13 2.6609420331378356e-13 6.427639043775879e-20
1.0001793341362166 1.0267592826177951e-20 2.7259378364599177e-13 2.725937063147193e-13 7.733127248679866e-20
1.0077091589558085 1.0437685680348716e-20 2.79195782302149e-13 2.7919568938928683e-13 9.291286219482305e-20
1.0114953028030835 1.0523001842450278e-20 2.8253545187854285e-13 2.8253535008568137e-13 1.017928615142995e-19
1.0152956718711033 1.06084945321537e-20 2.8590103314467947e-13 2.859009216606066e-13 1.1148407297560477e-19
1.0229392996569957 1.0779916518032281e-20 2.9270806885668425e-13 2.927079352674064e-13 1.3358927777462192e-19
1.0267826658714554 1.0865651832907279e-20 2.9614455106904324e-13 2.961444049025153e-13 1.4616652789190176e-19
1.0306404723013447 1.0951550357859753e-20 2.996071892792327e-13 2.9960702940501153e-13 1.598742210997271e-19
1.03451277320114 1.1037610058640175e-20 3.030960924368345e-13 3.030959176280762e-13 1.748087582849458e-19
1.0383996230291617 1.1123828993538295e-20 3.066113721348621e-13 3.066111810605782e-13 1.910742840445306e-19
1.0403485208654093 1.1166997592892905e-20 3.0837893880956907e-13 3.0837873906859674e-13 1.9974097234223653e-19
1.0423010764483396 1.1210205315789492e-20 3.1015314272128463e-13 3.1015293393801723e-13 2.087832673919378e-19
1.0462171883269815 1.1296737275981974e-20 3.137215214125794e-13 3.137212933554568e-13 2.280571226364161e-19
1.0471985131304309 1.1318394388913508e-20 3.1461778762055477e-13 3.146175544853238e-13 2.331352308985903e-19
1.048180758391296 1.1340061100827418e-20 3.1551572624046654e-13 3.15515487919039e-13 2.383214275541656e-19
1.0501480137395462 1.138342322446429e-20 3.1731662840932685e-13 3.17316379382454e-13 2.490268729558355e-19
1.0521189612883777 1.1426823456668644e-20 3.191242434297996e-13 3.191239832383451e-13 2.6019145442424614e-19
1.0531058218030118 1.144850934138272e-20 3.2002977747103327e-13 3.2002951151891015e-13 2.6595212300023543e-19
1.0540936079674168 1.1470111434176064e-20 3.2093438498056713e-13 3.2093411314460763e-13 2.7183595960690464e-19
1.058054026499678 1.1556610227953676e-20 3.2456952752262544e-13 3.245692308823736e-13 2.9664025184451835e-19
1.0590464539527713 1.1578257429750954e-20 3.254825012953032e-13 3.2548219812389813e-13 3.0317140502730936e-19
1.06003981227728 1.1599913593468867e-20 3.2639715437449663e-13 3.263968445345981e-13 3.098398985319546e-19
1.0620293250338977 1.1643252731285424e-20 3.2823150666533637e-13 3.282311830654105e-13 3.2359992594029016e-19
1.0660195594769086 1.1730037745302196e-20 3.319204540508384e-13 3.319201011586191e-13 3.5289221922649217e-19
1.070024785945596 1.1816964183872204e-20 3.356365049359838e-13 3.356361202279274e-13 3.847080564891768e-19
1.0740450607676866 1.1904031075989853e-20 3.3937979832061954e-13 3.393793790675864e-13 4.192530331305656e-19
1.07808044048254 1.1991237568161708e-20 3.431504770779853e-13 3.4315002032952215e-13 4.567484631580095e-19
1.0861967418109137 1.2165934322589401e-20 3.507707702322486e-13 3.507702286708854e-13 5.415613633012695e-19
1.0902777775684922 1.2253122906495689e-20 3.546119633434637e-13 3.546113739328425e-13 5.894106212348839e-19
1.0943741465085532 1.2340443762931353e-20 3.5848091135796657e-13 3.5848027008171217e-13 6.412762544239994e-19
1.1026131145906286 1.2515481605063533e-20 3.663027279741632e-13 3.6630196962120056e-13 7.583529627327149e-19
1.1109141095355224 1.2691047812446863e-20 3.742375799304462e-13 3.742366843005152e-13 8.956299309215847e-19
1.1192775983109025 1.2867008647534217e-20 3.822828697834306e-13 3.822818134058963e-13 1.056377534291444e-18
1.1277040513999907 1.3042743959062899e-20 3.904213353274674e-13 3.9042009096896816e-13 1.244358499207591e-18
1.1361939428280308 1.321900091932295e-20 3.986764069171996e-13 3.9867494302103955e-13 1.463896160127527e-18
1.1447477501889525 1.3395788912529696e-20 4.070497826074357e-13 4.070480626563432e-13 1.7199510923150998e-18
1.1533659546722406 1.3573180481209482e-20 4.155451181986553e-13 4.155430999884559e-13 2.0182101993456075e-18
1.1707974979042381 1.393033087790435e-20 4.3292498516936055e-13 4.3292221684581564e-13 2.7683235449877585e-18
1.1884924949847024 1.4290075326947122e-20 4.508171143113007e-13 4.508133361707685e-13 3.7781405321300106e-18
1.2064549276569216 1.4654873389125917e-20 4.693130226775182e-13 4.693078919140535e-13 5.1307634646649215e-18
1.2246888378427687 1.502253462228668e-20 4.883581121721438e-13 4.883511787896715e-13 6.933382472398423e-18
1.2431983285522175 1.5392873172417496e-20 5.079600317723728e-13 5.07950708007156e-13 9.323765216871075e-18
1.2619875648066055 1.576655915925739e-20 5.281550458718161e-13 5.281425677911955e-13 1.2478080620521361e-17
1.3004222497298317 1.6522359788926797e-20 5.703295837844018e-13 5.703075502951191e-13 2.2033489282865318e-17
1.3400274889804893 1.7293552617522293e-20 6.151306401830595e-13 6.150924492951879e-13 3.8190887871772024e-17
1.3808389325824078 1.808466401161368e-20 6.628616614479629e-13 6.627966510819745e-13 6.501036598844018e-17
1.4228933163050095 1.890427645293979e-20 7.14005952090707e-13 7.13897217416409e-13 1.0873467429785345e-16
1.466228494730424 1.9768622151377528e-20 7.693916858869951e-13 7.692128996308806e-13 1.7878625611451583e-16
1.5108834753276823 2.067990725999628e-20 8.293712779130522e-13 8.290821614734173e-13 2.891164396350498e-16
1.5568984535646726 2.1642206844220404e-20 8.943989151781583e-13 8.939386111432921e-13 4.603040348663596e-16
1.6043148490894465 2.2666527574900174e-20 9.652593769680252e-13 9.64536495507885e-13 7.228814601400953e-16
1.6531753430134553 2.3765622975354832e-20 1.0428877239313942e-12 1.0417692662401677e-12 1.1184576912266322e-15
1.7035239163302658 2.49548754335943e-20 1.128425975057205e-12 1.1267206667497325e-12 1.7053083074726762e-15
1.755405889504358 2.6263465328693202e-20 1.2237677741708973e-12 1.2212042730646017e-12 2.5635011062959124e-15
1.8088679632656115 2.770493936103859e-20 1.3302507242885992e-12 1.3264500213832302e-12 3.800702905368746e-15
1.8639582606462262 2.929493057322141e-20 1.4494328140269183e-12 1.4438729329210077e-12 5.5598811059105906e-15
1.9207263702978936 3.105582457517876e-20 1.5833539028163258e-12 1.5753260390910462e-12 8.027863725279316e-15
1.979223391128241 3.301494486552059e-20 1.7345020774729464e-12 1.7230566188782542e-12 1.1445458594692219e-14
2.039501978296691 3.52021406889095e-20 1.9057355622802803e-12 1.889617322144841e-12 1.6118240135439453e-14
2.1016163906111602 3.7660314952680464e-20 2.1009069977100055e-12 2.0784769537605635e-12 2.2430043949442527e-14
2.1656225393682647 4.0428685974188736e-20 2.3240304922165326e-12 2.293176069828307e-12 3.085442238822557e-14
2.231578038680979 4.353892752294688e-20 2.5790468941860345e-12 2.5370795073693537e-12 4.196738681668067e-14
2.299542257339062 4.703100548722269e-20 2.8707481362257975e-12 2.8142877891490646e-12 5.6460347076732924e-14
2.369576372248914 5.095104926052936e-20 3.204743503638774e-12 3.129589969017406e-12 7.515353462136853e-14
2.4417434235010123 5.534812462534468e-20 3.5873385941575938e-12 3.4883336714982876e-12 9.900492265930604e-14
2.5161083711144245 6.02803373558674e-20 4.026006297210025e-12 3.896883725097681e-12 1.2912257211234518e-13
2.5927381535095444 6.581496898775659e-20 4.529526164183229e-12 4.3627562402483885e-12 1.6676992393483975e-13
2.6717017477616296 7.201450619339452e-20 5.107135666708356e-12 4.893776531755766e-12 2.1335913495259047e-13
2.753070231689431 7.894712915439851e-20 5.769299241017168e-12 5.498850905772299e-12 2.7044833524486995e-13
2.836916847834745 8.672716884355172e-20 6.530872554333157e-12 6.191127790019519e-12 3.397447643136364e-13
2.9233170693905177 9.554710850661259e-20 7.414176222286728e-12 6.9911761822367385e-12 4.230000400499907e-13
2.967498994190263 1.004420865251833e-19 7.911807998644078e-12 7.442335411031652e-12 4.694725876124271e-13
3.0123486681368425 1.0564166637645703e-19 8.447144326790942e-12 7.926761524281078e-12 5.203828025098675e-13
3.0578761833420214 1.121619474550921e-19 9.10405495773808e-12 8.527802089343755e-12 5.762528683943247e-13
3.1040917844459814 1.1933451410425862e-19 9.832638139151813e-12 9.195794072087947e-12 6.368440670638634e-13
3.127460860933648 1.2438207185548652e-19 1.0325690490774513e-11 9.656486352131599e-12 6.692041386429178e-13
3.1510058709225794 1.3028390143649065e-19 1.0897061469271425e-11 1.0194186071854225e-11 7.028753974172004e-13
3.162844764501044 1.3480185938900534e-19 1.1317309491124525e-11 1.0597031948543372e-11 7.20277542581156e-13
3.1747281389236908 1.3977618753061195e-19 1.1779020159733945e-11 1.1041002633169242e-11 7.380175265647023e-13
3.1986289994194426 1.5249797022484062e-19 1.2947841266914041e-11 1.2173221933745651e-11 7.746193331683912e-13
3.2227097969389145 1.791248897626956e-19 1.5323097624115704e-11 1.4509753988026183e-11 8.133436360895214e-13
3.2348180950136065 2.0313230992027914e-19 1.7442081200580393e-11 1.6608087038331836e-11 8.339941622485546e-13
3.240889293275058 2.2079229181458107e-19 1.8994048235838367e-11 1.8149161326419826e-11 8.448869094185447e-13
3.2469718861334385 2.4116664704612083e-19 2.0785726416233363e-11 1.9929568763423552e-11 8.561576528098165e-13
3.2714166318528037 3.4705488300356756e-19 3.013723812110524e-11 2.9234553340336086e-11 9.026847807691503e-13
3.2744851364798273 3.538078891204297e-19 3.075246755293862e-11 2.98443136702014e-11 9.081538827372219e-13
3.2775565192852394 3.6073235242435085e-19 3.138374139689478e-11 3.047009234926205e-11 9.136490476327362e-13
3.283707930232385 3.549112457196917e-19 3.093525608250979e-11 3.001180835507179e-11 9.234477274380056e-13
3.2898708863219004 3.3518180910972e-19 2.92704047434365e-11 2.8338065803762338e-11 9.323389396741556e-13
3.29141343181113 3.305253194472229e-19 2.8877301271182415e-11 2.794273035937001e-11 9.345709118124035e-13
3.292184975758714 3.2823673680176313e-19 2.8684074914520766e-11 2.7748386640227622e-11 9.356882742931435e-13
3.295272960557952 3.138472246211174e-19 2.7452324277724314e-11 2.6512294614377863e-11 9.400296633464505e-13
3.3076538914384823 2.637154988846025e-19 2.3153952972430826e-11 2.2196499115755367e-11 9.574538566754519e-13
3.310756385682612 2.5344115996075217e-19 2.227274813711044e-11 2.131090501445016e-11 9.618431226602833e-13
3.313861789986515 2.439348410058561e-19 2.1457427766501532e-11 2.0491182081216162e-11 9.662456852853687e-13
3.3200813396944477 2.3085800780231367e-19 2.034525326036115e-11 1.9369525853821373e-11 9.757274065397802e-13
3.345076488085796 2.0956641294747796e-19 1.860789152328789e-11 1.7589876397137145e-11 1.0180151261507485e-12
3.3482140837626964 2.1087371037677776e-19 1.8741532118584632e-11 1.7717786987184827e-11 1.023745131399805e-12
3.3513546224236106 2.1219058201997045e-19 1.8876258757965514e-11 1.7846759203055445e-11 1.029499554910071e-12
3.3576445397418455 2.197512150096251e-19 1.958553481928865e-11 1.8543999396105407e-11 1.0415354231832468e-12
3.3702598118196083 2.4600384297170974e-19 2.2007702483566376e-11 2.0940923497058963e-11 1.0667789865074096e-12
3.382922481734668 2.533221580249673e-19 2.2747551574215605e-11 2.1656280172249206e-11 1.0912714019663952e-12
3.389271646505754 2.5707675744036297e-19 2.312802909226673e-11 2.2024351853558342e-11 1.1036772387083839e-12
3.395632727569191 2.611691047369705e-19 2.354029733699133e-11 2.2423835076298425e-11 1.1164622606929056e-12
3.421196662673239 2.8053787164165515e-19 2.5476453471304717e-11 2.4307114173023956e-11 1.1693392982807612e-12
3.4276182099114902 2.782030704740345e-19 2.531184447696046e-11 2.4130752850156907e-11 1.1810916268035469e-12
3.4340518103208963 2.6533700491284313e-19 2.4186559708807102e-11 2.2994375804329155e-11 1.192183904477955e-12
3.4469541582030403 2.47180835510432e-19 2.261620523608981e-11 2.140277843943759e-11 1.2134267966522268e-12
3.472904465399547 2.4439589252835437e-19 2.252973960836203e-11 2.1267305573004182e-11 1.2624340353578431e-12
3.4990501388274233 2.3891035307979297e-19 2.2189860338806755e-11 2.087738158989749e-11 1.3124787489092622e-12
3.5253949054701885 2.1282212992358325e-19 1.9915627327930726e-11 1.8554699932173593e-11 1.3609273957571298e-12
3.5519380250092896 1.8809018470805446e-19 1.7733764853073186e-11 1.6324278357088002e-11 1.4094864959851867e-12
3.578680990867387 1.8024484666640885e-19 1.7122030891000777e-11 1.5659338759482532e-11 1.4626921315182445e-12
3.605625307711299 1.7905666621569753e-19 1.7137225865612438e-11 1.5618579683901987e-11 1.518646181710448e-12
3.660119384959845 1.8242528284532683e-19 1.7723509104257923e-11 1.608768244337783e-11 1.635826660880094e-12
3.715437065384467 1.8676126455464494e-19 1.8419004256072867e-11 1.6660190856244037e-11 1.7588133998288308e-12
3.8285932144167436 1.9918749518260655e-19 2.0242806729439953e-11 1.822156835379229e-11 2.021238375647661e-12
3.94519561050918 2.1283803478970866e-19 2.228882706267723e-11 1.9984271360219445e-11 2.304555702457776e-12
4.06534921144712 2.2706149616650963e-19 2.4502521867919578e-11 2.1894757570873867e-11 2.607764297045701e-12
4.189162171576248 2.415958361958473e-19 2.6864950911487454e-11 2.3934189488363475e-11 2.9307614231239773e-12
4.316745939156006 2.56253201037362e-19 2.936264817155499e-11 2.6091079535689994e-11 3.2715686358649963e-12
4.448215356677963 2.7085310172656904e-19 3.198077997581268e-11 2.8356211912238894e-11 3.6245680635737756e-12
4.58368876423945 2.8528433786633426e-19 3.471062899280346e-11 3.072112963340722e-11 3.989499359396245e-12
4.723288106065518 2.9946358714328143e-19 3.754550002510243e-11 3.317748920657588e-11 4.368010818526563e-12
4.867139040275056 3.132226253425307e-19 4.0466562249623137e-11 3.571793871198767e-11 4.748623537635469e-12
4.940699165968905 3.1997270366115145e-19 4.1963410259840695e-11 3.7022648147192126e-11 4.9407621126485585e-12
5.015371051989984 3.2654139825278113e-19 4.347211300901917e-11 3.833871361733111e-11 5.13339939168806e-12
5.091171501069577 3.3311028443145053e-19 4.5016860236883434e-11 3.968589789039788e-11 5.3309623464855534e-12
5.129500256944802 3.36314645327051e-19 4.579206923295458e-11 4.036242112187135e-11 5.429648111083223e-12
5.168117569889187 3.3948550360893676e-19 4.657180304398483e-11 4.104244469524522e-11 5.529358348739615e-12
5.20702561229733 3.427910003363734e-19 4.737929109061851e-11 4.1740253027676255e-11 5.639038062942261e-12
5.246226572918644 3.460424985597236e-19 4.818877819046027e-11 4.243986322968363e-11 5.748914960776641e-12
5.265937586045735 3.476475021351504e-19 4.859417951707185e-11 4.2790270741808506e-11 5.803908775263359e-12
5.285722656980489 3.492384177281287e-19 4.899997030530727e-11 4.31410407922669e-11 5.858929513040383e-12
5.305582063971359 3.508150565967867e-19 4.940611375144585e-11 4.3492144113078646e-11 5.9139696383671986e-12
5.3255160863122235 3.5240381028008674e-19 4.981632997034542e-11 4.384680557774899e-11 5.9695243925964345e-12
5.365609099470188 3.557419074188346e-19 5.0666801881953565e-11 4.4582267671226164e-11 6.084534210727396e-12
5.406003951863644 3.590288662664404e-19 5.151991757802781e-11 4.5320214588930055e-11 6.199702989097762e-12
5.446702915881641 3.622637875427101e-19 5.237548340073871e-11 4.6060513202080527e-11 6.314970198658188e-12
5.487708281020852 3.6549374483441367e-19 5.324028830487696e-11 4.6809450019386054e-11 6.430838285490911e-12
5.529022354014368 3.690926466788105e-19 5.416929355743377e-11 4.7617671298008494e-11 6.551622259425275e-12
5.570647458961463 3.726620239177506e-19 5.51049034921772e-11 4.843236759495393e-11 6.672535897223268e-12
5.612585937458331 3.7620338840298035e-19 5.604735727190182e-11 4.9253839559507684e-11 6.793517712394135e-12
5.654840148729818 3.7978884733551557e-19 5.700749701339415e-11 5.009230570495316e-11 6.915191308441004e-12
5.67608639626678 3.81882063870154e-19 5.753706325869163e-11 5.0558072246692216e-11 6.978991011999404e-12
5.686739436050992 3.8293152167643535e-19 5.7803465975810816e-11 5.079256011351908e-11 7.010905862291732e-12
5.6974124697621304 3.8398305600751227e-19 5.8070980043302843e-11 5.1028150635338296e-11 7.04282940796455e-12
5.718818669136295 3.860929096440236e-19 5.860944184194126e-11 5.150274318020355e-11 7.1066986617377244e-12
5.740305295436557 3.8829900993138213e-19 5.916579535211923e-11 5.199466719352238e-11 7.171128158596854e-12
5.7835210386641895 3.9345133764528566e-19 6.040220305215737e-11 5.309799684037804e-11 7.304206211779331e-12
5.827062130521658 3.9892175115211443e-19 6.170307368737283e-11 5.4264294546644045e-11 7.438779140728797e-12
5.8489554468988025 4.0245968581831357e-19 6.248418795646183e-11 5.497230994903721e-11 7.511878007424613e-12
5.870931020387893 4.06106412447397e-19 6.328725481385521e-11 5.5702142827855225e-11 7.585111985999985e-12
5.892989160043636 4.0987162042612127e-19 6.411400755054335e-11 5.6455534493637704e-11 7.658473056905632e-12
5.915130176081913 4.1400571994543288e-19 6.500399993344983e-11 5.726934025616653e-11 7.734659677283318e-12
5.95966208400165 4.250279264098031e-19 6.723703209307551e-11 5.932634236350333e-11 7.910689729572189e-12
6.004529249263818 4.399966923413698e-19 7.01290263707751e-11 6.201887137913066e-11 8.110154991644418e-12
6.027089341400364 4.500870645765116e-19 7.200681369874815e-11 6.378019902550035e-11 8.2266146732478e-12
6.049734195844842 4.616615853781927e-19 7.413605383400645e-11 6.578581214243938e-11 8.350241691567071e-12
6.095279466722835 4.943185502123059e-19 7.99778940389149e-11 7.131969311886191e-11 8.65820092005296e-12
6.141167624020661 5.428573405408867e-19 8.849242561761498e-11 7.942948154100549e-11 9.062944076609501e-12
6.164241091010745 5.736007796389772e-19 9.385529566749836e-11 8.453590171561222e-11 9.319393951886161e-12
6.187401249150058 6.075293792243713e-19 9.978034433615303e-11 9.019809000870825e-11 9.582254327444777e-12
6.1990139391386085 6.239569925261195e-19 1.0267074232891327e-10 9.295482288405732e-11 9.715919444855965e-12
6.204828454712694 6.325185001012389e-19 1.0417714336541236e-10 9.439376171468818e-11 9.783381650724198e-12
6.210648424152782 6.387127647238676e-19 1.0529602434344837e-10 9.545569727226473e-11 9.840327071183627e-12
6.233982942956859 6.592640884571968e-19 1.0909239143993704e-10 9.905577773386554e-11 1.0036613706071486e-11
6.239830258556775 6.616130773883088e-19 1.0958378320579096e-10 9.95216339386559e-11 1.0062149267135068e-11
6.245683058788269 6.614916917605217e-19 1.0966644586664326e-10 9.957873788387087e-11 1.0087707982772409e-11
6.257405133728602 6.601545254809698e-19 1.0965017067090819e-10 9.951871959908031e-11 1.0131451071827874e-11
6.269149208991335 6.551260240545596e-19 1.0901917495704928e-10 9.8876463354241e-11 1.0142711602808297e-11
6.280915325867298 6.437294032979568e-19 1.073237201894516e-10 9.720984920138114e-11 1.0113870988070498e-11
6.304513850009849 6.160963550559103e-19 1.0310261384858604e-10 9.308260241668823e-11 1.0020011431897842e-11
6.32820103803542 5.828816713150487e-19 9.791068745101178e-11 8.802301634807774e-11 9.887671102934031e-12
6.3519772230701035 5.527621090276343e-19 9.320015408518551e-11 8.343246499777212e-11 9.767689087413411e-12
6.375842739491607 5.271526043012374e-19 8.921613113246866e-11 7.955569205833676e-11 9.660439074131927e-12
6.399797922933955 5.073233876606336e-19 8.618279566546778e-11 7.658412739599397e-11 9.598668269473799e-12
6.42384311029221 4.906419635575052e-19 8.366215524992405e-11 7.41161361323238e-11 9.546019117600246e-12
6.447978639727206 4.7878852569353435e-19 8.194769776421696e-11 7.241900423874538e-11 9.528693525471596e-12
6.472204850670314 4.688356028861525e-19 8.054568360277752e-11 7.102733981925834e-11 9.518343783519166e-12
6.496522083828205 4.625654113147318e-19 7.976704561434706e-11 7.0230556803758e-11 9.536488810589079e-12
