Dust emission spectrum from A.P. Jones, M. Kohler, N. Ysard, M. Bocchio, and L. Verstraete (2017), A&A, 602A, 46J 
inside the DustPedia framework.

lambda    nu*dP/dnu     j_nu    j_nu(carb.) j_nu(sil)
 (um)   (erg s-1 H-1) (Jy cm2 sr-1 H-1)
0.9927057738263894 2.9482643918496803e-22 7.768844130598276e-15 7.76884265720078e-15 1.4733974974033525e-21
1.0001793341362166 2.997840999815578e-22 7.95895235371353e-15 7.958950580617368e-15 1.773096158838801e-21
1.0077091589558085 3.0476156600088488e-22 8.152012471063636e-15 8.152010340150904e-15 2.1309127303152333e-21
1.0114953028030835 3.0725750278362626e-22 8.249655249687815e-15 8.249652914805853e-15 2.334881961688713e-21
1.0152956718711033 3.0975812717429125e-22 8.348043006071256e-15 8.348040448550667e-15 2.55752058744745e-21
1.0229392996569957 3.1477066968247893e-22 8.546997066383751e-15 8.546994000907511e-15 3.065476240033203e-21
1.0267826658714554 3.172769004371466e-22 8.647417264003741e-15 8.647413909444336e-15 3.3545594047487174e-21
1.0306404723013447 3.1978737142294497e-22 8.74858740436333e-15 8.748583734684717e-15 3.669678611854369e-21
1.03451277320114 3.2230200837089655e-22 8.850510101622287e-15 8.850506088562623e-15 4.013059663942338e-21
1.0383996230291617 3.248207395449784e-22 8.953188035127056e-15 8.953183648019365e-15 4.387107693365385e-21
1.0403485208654093 3.260816187588184e-22 9.004811071343739e-15 9.004806484907971e-15 4.5864357663999356e-21
1.0423010764483396 3.2734349581080795e-22 9.056623952470722e-15 9.056619158050065e-15 4.794420658957343e-21
1.0462171883269815 3.2987021070433905e-22 9.160820672609446e-15 9.160815434805665e-15 5.237803780613274e-21
1.0471985131304309 3.305025004343603e-22 9.186989065478348e-15 9.186983710843117e-15 5.354635232314608e-21
1.048180758391296 3.3113503261355474e-22 9.213205234943851e-15 9.213199760985122e-15 5.473958730310427e-21
1.0501480137395462 3.324008205005577e-22 9.265781089035687e-15 9.265775368750714e-15 5.7202849709087834e-21
1.0521189612883777 3.3366756683896244e-22 9.318548608747771e-15 9.318542631549279e-15 5.9771984925922524e-21
1.0531058218030118 3.343004584142993e-22 9.34498091625535e-15 9.344974806486598e-15 6.109768748777512e-21
1.0540936079674168 3.3493083914678645e-22 9.37138435746336e-15 9.371378112284082e-15 6.2451792800662874e-21
1.058054026499678 3.3745460213028514e-22 9.477474675820766e-15 9.477467859731272e-15 6.81608949083428e-21
1.0590464539527713 3.380860986473674e-22 9.504116634871084e-15 9.504109668440006e-15 6.966431078701051e-21
1.06003981227728 3.3871781581737748e-22 9.530806443332803e-15 9.530799323391756e-15 7.119941048361473e-21
1.0620293250338977 3.399819089004825e-22 9.584329806525e-15 9.584322369803984e-15 7.436721015569874e-21
1.0660195594769086 3.42512708205854e-22 9.691952924141294e-15 9.691944812967817e-15 8.111173477563291e-21
1.070024785945596 3.4504695190567443e-22 9.800347295161734e-15 9.800338451297614e-15 8.843864122520226e-21
1.0740450607676866 3.475845950381091e-22 9.90951628153228e-15 9.909506641981556e-15 9.639550722333626e-21
1.07808044048254 3.5012559588821987e-22 1.0019463344238889e-14 1.0019452840882895e-14 1.0503355996377479e-20
1.0861967418109137 3.552136329105525e-22 1.0241593971264356e-14 1.0241581513466892e-14 1.2457797462253075e-20
1.0902777775684922 3.5775176354439473e-22 1.0353528339523233e-14 1.035351477877293e-14 1.3560750304109428e-20
1.0943741465085532 3.6029296635781783e-22 1.046624849292579e-14 1.0466233736416135e-14 1.4756509654184668e-20
1.1026131145906286 3.653844973038751e-22 1.069406215001171e-14 1.0694044693520747e-14 1.7456490965690083e-20
1.1109141095355224 3.704880804919802e-22 1.0925068180770083e-14 1.0925047557225263e-14 2.0623544823023647e-20
1.1192775983109025 3.7559963810100243e-22 1.1159183262877913e-14 1.115915892935293e-14 2.4333524986919306e-20
1.1277040513999907 3.807007928228565e-22 1.1395892793774065e-14 1.1395864120025738e-14 2.8673748327498137e-20
1.1361939428280308 3.8581334508322224e-22 1.1635877710973239e-14 1.1635843966384637e-14 3.3744588599790356e-20
1.1447477501889525 3.909374120034795e-22 1.1879180062346856e-14 1.187914040107461e-14 3.966127224777412e-20
1.1533659546722406 3.96075001693887e-22 1.2125900309236352e-14 1.2125853753273077e-14 4.65559632765296e-20
1.1707974979042381 4.0640675985680913e-22 1.2630255664839282e-14 1.263019175798962e-14 6.390684966494566e-20
1.1884924949847024 4.167957515350462e-22 1.314889205726681e-14 1.3148804772915092e-14 8.728435171899035e-20
1.2064549276569216 4.27313290138185e-22 1.3684437012866494e-14 1.3684318388548995e-14 1.186243174986607e-19
1.2246888378427687 4.378930231273478e-22 1.4235188367651982e-14 1.423502794131266e-14 1.6042633932370384e-19
1.2431983285522175 4.485282510932424e-22 1.4801292918101018e-14 1.4801077011599117e-14 2.1590650189649463e-19
1.2619875648066055 4.592366353699523e-22 1.538370825047281e-14 1.538341906876498e-14 2.891817078364496e-19
1.3004222497298317 4.808185114650828e-22 1.6597206756355745e-14 1.6596695289944183e-14 5.114664115628635e-19
1.3400274889804893 5.02730208852435e-22 1.7882083690393753e-14 1.7881195673658033e-14 8.880167357198258e-19
1.3808389325824078 5.250885301641779e-22 1.9246199724162784e-14 1.92446855103901e-14 1.5142137726833531e-18
1.4228933163050095 5.481286774333329e-22 2.0702571673307576e-14 2.070003461401791e-14 2.5370592896754322e-18
1.466228494730424 5.723096594661209e-22 2.2274202540482445e-14 2.2270023574478e-14 4.1789660044441784e-18
1.5108834753276823 5.9767393612340475e-22 2.396981717306218e-14 2.3963047100189885e-14 6.770072872291514e-18
1.5568984535646726 6.243171784347876e-22 2.5800908897064792e-14 2.5790110411677068e-14 1.0798485387726973e-17
1.6043148490894465 6.525364337024108e-22 2.778841661402122e-14 2.7771426747679062e-14 1.6989866342147572e-17
1.6531753430134553 6.826762327598647e-22 2.9957332206409974e-14 2.9930995669581636e-14 2.6336536828335896e-17
1.7035239163302658 7.151557423956885e-22 3.233838285741266e-14 3.229815099366635e-14 4.023186374630085e-17
1.755405889504358 7.507951335903588e-22 3.498391693530306e-14 3.492332137570902e-14 6.059555959404174e-17
1.8088679632656115 7.89948102534265e-22 3.792930285291979e-14 3.7839286116613024e-14 9.001673630676357e-17
1.8639582606462262 8.330260471562002e-22 4.1215843972370914e-14 4.108390018969194e-14 1.3194378267895166e-16
1.9207263702978936 8.806319590902216e-22 4.4898245931126205e-14 4.4707348628370995e-14 1.9089730275521672e-16
1.979223391128241 9.335070655037977e-22 4.9043545310990474e-14 4.8770822266856416e-14 2.7272304413406863e-16
2.039501978296691 9.924628645893216e-22 5.372888518357376e-14 5.3344020641878194e-14 3.848645416955717e-16
2.1016163906111602 1.0586871851207442e-21 5.905960474310301e-14 5.852290029360812e-14 5.367044494948929e-16
2.1656225393682647 1.1332559932614477e-21 6.514486979636711e-14 6.440500756737802e-14 7.398622289891127e-16
2.231578038680979 1.2170255433724967e-21 7.209102580961935e-14 7.10824983977586e-14 1.0085274118607343e-15
2.299542257339062 1.3110923748944095e-21 8.002839728082208e-14 7.866859396575023e-14 1.3598033150718482e-15
2.369576372248914 1.4167419969021007e-21 8.911091678776273e-14 8.729684819670603e-14 1.8140685910567334e-15
2.4417434235010123 1.5353551591030654e-21 9.951265476964838e-14 9.711741847885169e-14 2.3952362907966727e-15
2.5161083711144245 1.6685938622766555e-21 1.1144213340003702e-13 1.08311031702889e-13 3.1311016971480127e-15
2.5927381535095444 1.8184215415255763e-21 1.251476385468894e-13 1.2109411191757475e-13 4.053526629314623e-15
2.6717017477616296 1.9867048412057134e-21 1.4089343508786748e-13 1.3569509982714204e-13 5.198335260725449e-15
2.753070231689431 2.1755389126668435e-21 1.5898405847165426e-13 1.5237874742981548e-13 6.6053110418387415e-15
2.836916847834745 2.3884919983935545e-21 1.7986217060413839e-13 1.7154383434672719e-13 8.31833625741116e-15
2.9233170693905177 2.6317172995403902e-21 2.042135668049297e-13 1.9383058802143302e-13 1.0382978783496701e-14
2.967498994190263 2.7682877816005583e-21 2.1805761081560722e-13 2.0651813924880883e-13 1.1539471566798412e-14
3.0123486681368425 2.9138104168966084e-21 2.3298929273533115e-13 2.2018120291891095e-13 1.2808089816420161e-14
3.0578761833420214 3.1000481345136235e-21 2.516273052368808e-13 2.3742532233683487e-13 1.4201982900045929e-14
3.1040917844459814 3.3066277503214062e-21 2.7245155665009526e-13 2.5673527962926457e-13 1.5716277020830724e-14
3.127460860933648 3.4558830884318875e-21 2.868932685484573e-13 2.703672162376047e-13 1.652605231085256e-14
3.1510058709225794 3.632225275634085e-21 3.0380255474710566e-13 2.864331656538951e-13 1.7369389093210538e-14
3.162844764501044 3.7697883912386086e-21 3.164931265271219e-13 2.9868759254536364e-13 1.7805533981758164e-14
3.1747281389236908 3.922009606344301e-21 3.3051001773590477e-13 3.122596701198859e-13 1.8250347616018838e-14
3.1986289994194426 4.3148221191640435e-21 3.663500032920789e-13 3.4718128520472347e-13 1.9168718087355423e-14
3.2227097969389145 5.148819399368297e-21 4.404517005424668e-13 4.2031059641192173e-13 2.0141104130545145e-14
3.2348180950136065 5.9055416989286835e-21 5.070829839258593e-13 4.864231479970003e-13 2.0659835928858875e-14
3.240889293275058 6.463449126212003e-21 5.560296669063817e-13 5.350962126292407e-13 2.093345427714123e-14
3.2469718861334385 7.107510812028743e-21 6.125837757780711e-13 5.91367207874887e-13 2.121656790318411e-14
3.2714166318528037 1.0464661654663202e-20 9.087208265562487e-13 8.863349031434914e-13 2.2385923412757132e-14
3.2744851364798273 1.0678375801352009e-20 9.281489063614008e-13 9.056253476505149e-13 2.252355871088589e-14
3.2775565192852394 1.0897598985341749e-20 9.48091919409282e-13 9.254300531403642e-13 2.2661866268917694e-14
3.283707930232385 1.071046564087941e-20 9.33560154431431e-13 9.106512937183126e-13 2.2908860713118243e-14
3.2898708863219004 1.00810168851301e-20 8.803444472029326e-13 8.572111241536766e-13 2.3133323049256055e-14
3.29141343181113 9.932447636902335e-21 8.677770382334395e-13 8.44587359615924e-13 2.3189678617515676e-14
3.292184975758714 9.859427133601729e-21 8.615993117348452e-13 8.383814192997089e-13 2.3217892435136226e-14
3.295272960557952 9.400230946656565e-21 8.222414219040761e-13 7.989138428196228e-13 2.332757908445321e-14
3.3076538914384823 7.800799475644072e-21 6.84902271464378e-13 6.61134296604014e-13 2.3767974860363707e-14
3.310756385682612 7.473084871841452e-21 6.567446944432812e-13 6.328657468818674e-13 2.38789475614134e-14
3.313861789986515 7.169894969313835e-21 6.306909778163298e-13 6.067007076030505e-13 2.3990270213279248e-14
3.3200813396944477 6.751798796980752e-21 5.950283370945663e-13 5.707984758558615e-13 2.4229861238704944e-14
3.345076488085796 6.062786667634965e-21 5.383289958227307e-13 5.13031030495985e-13 2.5297965326745537e-14
3.3482140837626964 6.102780333144986e-21 5.423883964574981e-13 5.169457234284475e-13 2.5442673029050486e-14
3.3513546224236106 6.1430822096305015e-21 5.464823568348873e-13 5.208943413656756e-13 2.5588015469211834e-14
3.3576445397418455 6.38029855134792e-21 5.686501411580744e-13 5.427581928325e-13 2.589194832557446e-14
3.3702598118196083 7.209623912490794e-21 6.449787782492073e-13 6.184493480631558e-13 2.652943018605159e-14
3.382922481734668 7.436192318273073e-21 6.677472258823519e-13 6.405986644749859e-13 2.7148561407365976e-14
3.389271646505754 7.55255966248749e-21 6.794695146083456e-13 6.520072338740434e-13 2.746228073430232e-14
3.395632727569191 7.679342947286865e-21 6.921722862814186e-13 6.643866988558518e-13 2.7785587425566982e-14
3.421196662673239 8.28077577433851e-21 7.520011379808215e-13 7.228777447914745e-13 2.912339318934719e-14
3.4276182099114902 8.203986195097765e-21 7.464260631905086e-13 7.170046524738477e-13 2.9421410716661056e-14
3.4340518103208963 7.79260469028603e-21 7.103279796598418e-13 6.80624957039657e-13 2.970302262018482e-14
3.4469541582030403 7.211221236915617e-21 6.598022017368332e-13 6.295591900714801e-13 3.024301166535289e-14
3.472904465399547 7.112903038701715e-21 6.557060008808638e-13 6.242182966190949e-13 3.1487704261768904e-14
3.4990501388274233 6.928215662989952e-21 6.434888064793685e-13 6.107285882209592e-13 3.276021825840907e-14
3.5253949054701885 6.086391235559328e-21 5.695568391450038e-13 5.355622979795439e-13 3.3994541165459793e-14
3.5519380250092896 5.2882537829516175e-21 4.985940612254758e-13 4.633604652837016e-13 3.52335959417741e-14
3.578680990867387 5.026588363564067e-21 4.774916056078761e-13 4.409001840500147e-13 3.659142155786149e-14
3.605625307711299 4.976493248701956e-21 4.762921740035401e-13 4.3827166401987325e-13 3.802050998366683e-14
3.660119384959845 5.059260525058094e-21 4.915319224293413e-13 4.505134101321503e-13 4.101851229719112e-14
3.715437065384467 5.173177945872914e-21 5.101956598423859e-13 4.66023119977862e-13 4.4172539864524095e-14
3.8285932144167436 5.521658713229847e-21 5.611490322490897e-13 5.102204747139927e-13 5.09285575350971e-14
3.94519561050918 5.9113144881879496e-21 6.190447420288356e-13 5.607834052491446e-13 5.826133677969114e-14
4.06534921144712 6.3221952099855974e-21 6.822368785605528e-13 6.160831166721396e-13 6.615376188841314e-14
4.189162171576248 6.746709463200398e-21 7.502199599003768e-13 6.756083127824587e-13 7.46116471179181e-14
4.316745939156006 7.179725625696329e-21 8.226853622206332e-13 7.390923285530944e-13 8.359303366753872e-14
4.448215356677963 7.616485001628275e-21 8.993108421998084e-13 8.06349653360731e-13 9.296118883907722e-14
4.58368876423945 8.05409205962567e-21 9.799437412036823e-13 8.7722626247309e-13 1.0271747873059232e-13
4.723288106065518 8.49041609119816e-21 1.0644930844720315e-12 9.515797997498426e-13 1.12913284722189e-13
4.867139040275056 8.921168936874634e-21 1.1525637323569878e-12 1.0293053011671293e-12 1.2325843118985889e-13
4.940699165968905 9.135454978928964e-21 1.1980860892342558e-12 1.0695697005386374e-12 1.285163886956181e-13
5.015371051989984 9.346062045743651e-21 1.2442314132781246e-12 1.110418385186026e-12 1.338130280920989e-13
5.091171501069577 9.558691566844887e-21 1.2917712314003406e-12 1.1525053130307042e-12 1.3926591836963638e-13
5.129500256944802 9.663286855595701e-21 1.3157378272332588e-12 1.173737658850351e-12 1.4200016838290788e-13
5.168117569889187 9.76733031238798e-21 1.3399163697371532e-12 1.1951486319095675e-12 1.4476773782758546e-13
5.20702561229733 9.875849260781089e-21 1.3650029797587049e-12 1.2172034246051427e-12 1.4779955515356208e-13
5.246226572918644 9.983222917258388e-21 1.3902318841992021e-12 1.2393877918955723e-12 1.5084409230362977e-13
5.265937586045735 1.003646567814182e-20 1.4028975093597873e-12 1.2505268337085538e-12 1.5237067565123343e-13
5.285722656980489 1.0089404776267256e-20 1.415596078035667e-12 1.2616961880449303e-12 1.5389988999073682e-13
5.305582063971359 1.0142034601908943e-20 1.4283267088759343e-12 1.2728951593412628e-12 1.554315495346715e-13
5.3255160863122235 1.019519057588784e-20 1.441207396240471e-12 1.2842288635534058e-12 1.56978532687065e-13
5.365609099470188 1.0307029893928616e-20 1.4679862865080176e-12 1.3078064008376312e-12 1.6017988567038664e-13
5.406003951863644 1.0417856435854745e-20 1.4949413691896579e-12 1.331547807741025e-12 1.6339356144863303e-13
5.446702915881641 1.0527645273658178e-20 1.5220690812612385e-12 1.3554510107101573e-12 1.6661807055108117e-13
5.487708281020852 1.0637915017361604e-20 1.5495905757394102e-12 1.3797238912724288e-12 1.6986668446698127e-13
5.529022354014368 1.0760739836403884e-20 1.5792828178464984e-12 1.4060299719329345e-12 1.7325284591356394e-13
5.570647458961463 1.0883331998980395e-20 1.6092999044343258e-12 1.432648658606988e-12 1.7665124582733776e-13
5.612585937458331 1.1005748373865801e-20 1.6396532571736458e-12 1.4595928903231118e-12 1.8006036685053369e-13
5.654840148729818 1.1130340456717964e-20 1.6706990076089933e-12 1.487202225872787e-12 1.8349678173620636e-13
5.67608639626678 1.1202702300020423e-20 1.6878786722063216e-12 1.502581946142308e-12 1.8529672606401345e-13
5.686739436050992 1.1239058000842439e-20 1.6965344192813633e-12 1.510336428675222e-12 1.8619799060614174e-13
5.6974124697621304 1.1275536417969828e-20 1.7052352703100788e-12 1.5181351856415228e-12 1.87100084668556e-13
5.718818669136295 1.1348880842444643e-20 1.7227759305905104e-12 1.5338692659214325e-12 1.8890666466907794e-13
5.740305295436557 1.1425599968716126e-20 1.7409385350833052e-12 1.5502078568180623e-12 1.907306782652428e-13
5.7835210386641895 1.16040505843789e-20 1.78144068290616e-12 1.5869413558154413e-12 1.9449932709071898e-13
5.827062130521658 1.1794032904384692e-20 1.824237658811078e-12 1.62591948452235e-12 1.983181742887282e-13
5.8489554468988025 1.1915810365063761e-20 1.8499982998056596e-12 1.6496112047386507e-12 2.0038709506700892e-13
5.870931020387893 1.2041554719000737e-20 1.876544960873013e-12 1.6740825133834726e-12 2.0246244748954034e-13
5.892989160043636 1.217160114199957e-20 1.903937937223011e-12 1.6993938971192703e-12 2.0454404010374052e-13
5.915130176081913 1.2314164241126337e-20 1.9334755365606324e-12 1.7267715931068035e-12 2.06703943453829e-13
5.95966208400165 1.2691293886711808e-20 2.007691451174756e-12 1.7960260606935493e-12 2.1166539048120624e-13
6.004529249263818 1.3201387867688147e-20 2.104107812668859e-12 1.886836985394013e-12 2.1727082727484593e-13
6.027089341400364 1.3543883804368689e-20 2.1668072571165448e-12 1.946277715287068e-12 2.2052954182947714e-13
6.049734195844842 1.3936768332957153e-20 2.238039811256502e-12 2.014054155886851e-12 2.239856553696507e-13
6.095279466722835 1.5042248927731734e-20 2.433749229787979e-12 2.2012006037251197e-12 2.325486260628592e-13
6.141167624020661 1.6684260262315384e-20 2.7197396995254824e-12 2.4759935273109345e-12 2.437461722145474e-13
6.164241091010745 1.7723822344691955e-20 2.900056355513087e-12 2.6492418850925074e-12 2.508144704205802e-13
6.187401249150058 1.8873849388886583e-20 3.0998322967954456e-12 2.8417675293649805e-12 2.580647674304656e-13
6.1990139391386085 1.943157466415004e-20 3.1974226097073092e-12 2.9356701351611462e-12 2.6175247454616283e-13
6.204828454712694 1.972246393076137e-20 3.2483317912523396e-12 2.9847175212209062e-12 2.6361427003143435e-13
6.210648424152782 1.9933894329032817e-20 3.286234342657929e-12 3.0210428418906455e-12 2.65191500767283e-13
6.233982942956859 2.063919032262522e-20 3.415290881304202e-12 3.144638616018266e-12 2.706522652859363e-13
6.239830258556775 2.0722386437385317e-20 3.4322742105175662e-12 3.160892986743578e-12 2.713812237739889e-13
6.245683058788269 2.0722035278059353e-20 3.4354353779105064e-12 3.163324325486458e-12 2.7211105242404944e-13
6.257405133728602 2.068461292191687e-20 3.4356673318226593e-12 3.162295671160206e-12 2.7337166066245364e-13
6.269149208991335 2.052330383711504e-20 3.415272130189092e-12 3.1415187080507326e-12 2.7375342213835906e-13
6.280915325867298 2.0147519722625294e-20 3.3590306084273254e-12 3.085981099695871e-12 2.730495087314557e-13
6.304513850009849 1.923232295077306e-20 3.21849455906115e-12 2.9478335962198965e-12 2.706609628412529e-13
6.32820103803542 1.812643156952254e-20 3.0448227545079323e-12 2.777593637241905e-12 2.672291172660272e-13
6.3519772230701035 1.7122904487190997e-20 2.8870599314402957e-12 2.6229291098112437e-12 2.6413082162905193e-13
6.375842739491607 1.6271397483128776e-20 2.7537967558513496e-12 2.49242126299151e-12 2.6137549285983953e-13
6.399797922933955 1.561185631089848e-20 2.6521021011963313e-12 2.392247413859763e-12 2.598546873365682e-13
6.42384311029221 1.5058740979371437e-20 2.5677516789427806e-12 2.3091710433112986e-12 2.585806356314829e-13
6.447978639727206 1.4667352724920126e-20 2.51041059591364e-12 2.2521435458047324e-12 2.5826705010890737e-13
6.472204850670314 1.4340246085963774e-20 2.463645928158076e-12 2.2055025726417474e-12 2.5814335551632903e-13
6.496522083828205 1.413692637807764e-20 2.4378408408049324e-12 2.1790449617499625e-12 2.587958790549704e-13
