Dust emission spectrum from A.P. Jones, M. Kohler, N. Ysard, M. Bocchio, and L. Verstraete (2017), A&A, 602A, 46J 
inside the DustPedia framework.

lambda    nu*dP/dnu     j_nu    j_nu(carb.) j_nu(sil)
 (um)   (erg s-1 H-1) (Jy cm2 sr-1 H-1)
0.9927057738263894 3.4947568771309356e-21 9.208882869467875e-14 9.208880796846861e-14 2.0726210110519408e-20
1.0001793341362166 3.553419880081726e-21 9.433955810214327e-14 9.433953316428523e-14 2.4937858037414886e-20
1.0077091589558085 3.6123326789059786e-21 9.662563896914334e-14 9.662560900397757e-14 2.996516578659813e-20
1.0114953028030835 3.641880403729508e-21 9.77820151474699e-14 9.778198231700336e-14 3.283046652466459e-20
1.0152956718711033 3.671487811473646e-21 9.894732521159253e-14 9.894728925390638e-14 3.595768614137504e-20
1.0229392996569957 3.730849321745648e-21 1.0130409621787837e-13 1.013040531265671e-13 4.309131129474308e-20
1.0267826658714554 3.760536211468957e-21 1.0249383334293502e-13 1.0249378619246628e-13 4.7150468748016636e-20
1.0306404723013447 3.790277986152385e-21 1.0369258204643768e-13 1.0369253047173112e-13 5.157470654439727e-20
1.03451277320114 3.820073893822235e-21 1.0490037824185721e-13 1.0490032184667439e-13 5.639518283204744e-20
1.0383996230291617 3.849923213970594e-21 1.0611725871865531e-13 1.0611719707309424e-13 6.164556106654151e-20
1.0403485208654093 3.864867687373261e-21 1.0672911730813787e-13 1.0672905286492355e-13 6.444321431402591e-20
1.0423010764483396 3.879825258383702e-21 1.0734326118025953e-13 1.0734319381806144e-13 6.7362198105888e-20
1.0462171883269815 3.909779371970612e-21 1.0857842428273329e-13 1.0857835069838798e-13 7.358434533664801e-20
1.0471985131304309 3.917275962628133e-21 1.0888865103237921e-13 1.0888857580861846e-13 7.522376073769182e-20
1.048180758391296 3.924775759249296e-21 1.0919945342447639e-13 1.09199376526381e-13 7.689809541126495e-20
1.0501480137395462 3.939784933591938e-21 1.0982278767414371e-13 1.0982270731978003e-13 8.03543636502661e-20
1.0521189612883777 3.954806822797003e-21 1.104484321493181e-13 1.104483481903494e-13 8.395896870619466e-20
1.0531058218030118 3.962312637616367e-21 1.1076184626966255e-13 1.1076176045076019e-13 8.581890237762684e-20
1.0540936079674168 3.969789250987136e-21 1.1107493410847948e-13 1.1107484638984993e-13 8.771862952043789e-20
1.058054026499678 3.999725766284795e-21 1.123330350835062e-13 1.1233293935596631e-13 9.572753987171322e-20
1.0590464539527713 4.007217371103085e-21 1.1264900103440489e-13 1.126489031979836e-13 9.783642127684095e-20
1.06003981227728 4.014711951045688e-21 1.1296554460477955e-13 1.129654446150987e-13 9.998968084812423e-20
1.0620293250338977 4.029710006936342e-21 1.1360036731377162e-13 1.136002628808734e-13 1.0443289818986839e-19
1.0660195594769086 4.05974150552665e-21 1.1487697423506663e-13 1.14876860343043e-13 1.1389202362574086e-19
1.070024785945596 4.0898198330642536e-21 1.1616290049021275e-13 1.161627763235462e-13 1.241666665299648e-19
1.0740450607676866 4.11994459980368e-21 1.1745819197277522e-13 1.1745805664944806e-13 1.3532332714621678e-19
1.07808044048254 4.150115456066799e-21 1.187628958715029e-13 1.1876274843790757e-13 1.4743359535102058e-19
1.0861967418109137 4.210548394843478e-21 1.2139941449602148e-13 1.2139923966704438e-13 1.748289771020344e-19
1.0902777775684922 4.2407057507430994e-21 1.227283039359479e-13 1.227281136498027e-13 1.9028614520205368e-19
1.0943741465085532 4.2709064280157286e-21 1.2406672385953101e-13 1.2406651681774108e-13 2.0704178995964746e-19
1.1026131145906286 4.331437278396376e-21 1.2677237210621297e-13 1.2677212723820618e-13 2.448680067861377e-19
1.1109141095355224 4.392140466927478e-21 1.2951680927759495e-13 1.295165200513344e-13 2.892262605840862e-19
1.1192775983109025 4.4529691467228734e-21 1.322991124897173e-13 1.3229877131457577e-13 3.4117514157614014e-19
1.1277040513999907 4.5137078041573e-21 1.3511327322749335e-13 1.351128712946877e-13 4.0193280562095935e-19
1.1361939428280308 4.574614989173442e-21 1.3796739088256627e-13 1.3796691798345018e-13 4.72899116083575e-19
1.1447477501889525 4.635693442338908e-21 1.408620291242279e-13 1.4086147344369586e-13 5.556805320483553e-19
1.1533659546722406 4.696967913149536e-21 1.437984331930945e-13 1.4379778107406583e-13 6.521190286738761e-19
1.1707974979042381 4.820296736254948e-21 1.4980454601872522e-13 1.4980365131003221e-13 8.947086929936154e-19
1.1884924949847024 4.9444650486520606e-21 1.55985844304336e-13 1.559846229289131e-13 1.2213754229589796e-18
1.2064549276569216 5.07032251584744e-21 1.6237386176450404e-13 1.6237220270816991e-13 1.659056334105092e-18
1.2246888378427687 5.197103287195879e-21 1.6894935601168806e-13 1.6894711350342355e-13 2.242508264501146e-18
1.2431983285522175 5.32473891111489e-21 1.757147295487474e-13 1.757117131303231e-13 3.0164184242889704e-18
1.2619875648066055 5.45345522110753e-21 1.8268221134176776e-13 1.82678173392068e-13 4.037949699749662e-18
1.3004222497298317 5.713548031956487e-21 1.9722397482118943e-13 1.9721684093177456e-13 7.133889414817599e-18
1.3400274889804893 5.978588286307598e-21 2.12658030497509e-13 2.1264565854981017e-13 1.2371947698919308e-17
1.3808389325824078 6.2500934704021844e-21 2.2908622130526297e-13 2.290651495342103e-13 2.107177105264265e-17
1.4228933163050095 6.530985071537768e-21 2.466723455775718e-13 2.4663708160814813e-13 3.526396942361123e-17
1.466228494730424 6.82683418356834e-21 2.6569931993973617e-13 2.6564130412825493e-13 5.801581148121817e-17
1.5108834753276823 7.138334246066874e-21 2.8628413664520717e-13 2.861902641505474e-13 9.387249465977546e-17
1.5568984535646726 7.466820938021344e-21 3.085783531626908e-13 3.0842880976518343e-13 1.495433975073328e-16
1.6043148490894465 7.81602579220308e-21 3.328472860087474e-13 3.3261229644324857e-13 2.349895654988283e-16
1.6531753430134553 8.190273502419493e-21 3.594071865976972e-13 3.5904338589102096e-13 3.6380070667622686e-16
1.7035239163302658 8.594791474124612e-21 3.8864493535183757e-13 3.880899098057764e-13 5.550255460612035e-16
1.755405889504358 9.039577515257907e-21 4.212065512621708e-13 4.203716920413999e-13 8.348592207708616e-16
1.8088679632656115 9.529184440745385e-21 4.575431239531145e-13 4.563045642746081e-13 1.2385596785062562e-15
1.8639582606462262 1.0068876140056684e-20 4.981803742901313e-13 4.963673843565226e-13 1.812989933608667e-15
1.9207263702978936 1.0666236024783276e-20 5.438086629230477e-13 5.41189211093562e-13 2.6194518294857393e-15
1.979223391128241 1.1330537844886885e-20 5.952710662063453e-13 5.915340252060837e-13 3.737041000261531e-15
2.039501978296691 1.2071919169641373e-20 6.535365525030882e-13 6.48270316463608e-13 5.2662360394800256e-15
2.1016163906111602 1.290502359429694e-20 7.19915763023683e-13 7.125823735945523e-13 7.333389429130498e-15
2.1656225393682647 1.3843207315498012e-20 7.957724852059809e-13 7.85677911681545e-13 1.0094573524435711e-14
2.231578038680979 1.489721870030262e-20 8.82443087298746e-13 8.68703220185768e-13 1.3739867112977833e-14
2.299542257339062 1.608067632846725e-20 9.8155612709023e-13 9.63058396872078e-13 1.8497730218152186e-14
2.369576372248914 1.7409368008524863e-20 1.0950227686674555e-12 1.0703832058795194e-12 2.46395627879359e-14
2.4417434235010123 1.890013702809878e-20 1.2249952722827874e-12 1.1925124600676166e-12 3.248281221517054e-14
2.5161083711144245 2.057302245584748e-20 1.3740320906121006e-12 1.3316368623443422e-12 4.239522826775824e-14
2.5927381535095444 2.245136070629858e-20 1.5451504012652894e-12 1.4903535691195119e-12 5.479683214577728e-14
2.6717017477616296 2.4556976985144956e-20 1.7415354163585688e-12 1.6713774529284569e-12 7.015796343011178e-14
2.753070231689431 2.691388070424769e-20 1.966812893426052e-12 1.8778142559267657e-12 8.899863749928607e-14
2.836916847834745 2.9562479345643186e-20 2.226162661262253e-12 2.1142728310069816e-12 1.1188983025527109e-13
2.9233170693905177 3.2571239312823685e-20 2.5274329262076537e-12 2.3880133092558408e-12 1.394196169518129e-13
2.967498994190263 3.424643284970363e-20 2.697586347704738e-12 2.5427828191049538e-12 1.5480352859978387e-13
3.0123486681368425 3.602738454323831e-20 2.8807621783345217e-12 2.7090987368368232e-12 1.716634414976984e-13
3.0578761833420214 3.82726320423818e-20 3.1065450751970914e-12 2.9163722643137507e-12 1.9017281088334157e-13
3.1040917844459814 4.074802253484599e-20 3.35745750907487e-12 3.1472003909747337e-12 2.1025711810013644e-13
3.127460860933648 4.250235669981114e-20 3.528371684631878e-12 3.3073838109927628e-12 2.209878736391152e-13
3.1510058709225794 4.4559379393519574e-20 3.7269861504759114e-12 3.494829616736888e-12 2.3215653373902373e-13
3.162844764501044 4.6142224798225135e-20 3.87387711873911e-12 3.6359471539998218e-12 2.3792996473928905e-13
3.1747281389236908 4.788732308502422e-20 4.035492410970635e-12 3.7916760981541614e-12 2.4381631281647525e-13
3.1986289994194426 5.236136041333405e-20 4.4457416852955024e-12 4.189777898615661e-12 2.5596378667984065e-13
3.2227097969389145 6.176287414452808e-20 5.283456427056913e-12 5.014637615264517e-12 2.6881881179239614e-13
3.2348180950136065 7.025443935802553e-20 6.032440808972455e-12 5.756766026808928e-12 2.756747821635257e-13
3.240889293275058 7.650486161384796e-20 6.581466317628043e-12 6.302175159748411e-12 2.792911578796303e-13
3.2469718861334385 8.371733187916853e-20 7.215448645370213e-12 6.932415618905485e-12 2.830330264647267e-13
3.2714166318528037 1.2123174713331566e-19 1.0527412839071895e-11 1.0228930306454638e-11 2.9848253261725347e-13
3.2744851364798273 1.23623088173906e-19 1.07451391694889e-11 1.044483984813185e-11 3.0029932135705145e-13
3.2775565192852394 1.2607539992616807e-19 1.096856913775902e-11 1.0666444302402174e-11 3.0212483535684687e-13
3.283707930232385 1.240052339563613e-19 1.0808712640910083e-11 1.0503331103198652e-11 3.0538153771143465e-13
3.2898708863219004 1.1700331753249956e-19 1.0217542740751817e-11 9.909204686831722e-12 3.08338053920097e-13
3.29141343181113 1.1535070649225705e-19 1.007794836653211e-11 9.768868099698717e-12 3.090802668333939e-13
3.292184975758714 1.1453847148499166e-19 1.0009330852732733e-11 9.699879016476616e-12 3.0945183625611596e-13
3.295272960557952 1.0943135393094169e-19 9.571998025119695e-12 9.261102226950588e-12 3.108957981691112e-13
3.3076538914384823 9.163938884184489e-20 8.045845271289306e-12 7.72915343244949e-12 3.1669183883981437e-13
3.310756385682612 8.799314446812463e-20 7.732955234400025e-12 7.414803195485384e-12 3.181520389146398e-13
3.313861789986515 8.461950959602117e-20 7.443450912163128e-12 7.123834193193389e-12 3.196167189697415e-13
3.3200813396944477 7.997557556654459e-20 7.048156375575349e-12 6.725385878580032e-12 3.227704969953153e-13
3.345076488085796 7.238885973522311e-20 6.427576015175313e-12 6.090741831301012e-12 3.368341838742997e-13
3.3482140837626964 7.284753008948595e-20 6.474369529005122e-12 6.135629799338576e-12 3.387397296665445e-13
3.3513546224236106 7.330960802948004e-20 6.521548305472172e-12 6.180894835427005e-12 3.4065347004516486e-13
3.3576445397418455 7.598063566403839e-20 6.7718459955933784e-12 6.427190038651514e-12 3.4465595694186424e-13
3.3702598118196083 8.527259152619175e-20 7.628554910530098e-12 7.2755041989469674e-12 3.5305071158312997e-13
3.382922481734668 8.784879744419916e-20 7.888552135252949e-12 7.527353913702668e-12 3.611982215502777e-13
3.389271646505754 8.917090346086835e-20 8.022301471205918e-12 7.656975907481477e-12 3.6532556372444166e-13
3.395632727569191 9.061181722945801e-20 8.16723372381576e-12 7.797654675258165e-12 3.6957904855759445e-13
3.421196662673239 9.743603541338575e-20 8.848447477381295e-12 8.461273943729321e-12 3.8717353365197384e-13
3.4276182099114902 9.660046670514454e-20 8.78903308103721e-12 8.397946232099563e-12 3.9108684893764847e-13
3.4340518103208963 9.203134369149798e-20 8.389035634163905e-12 7.994253884534252e-12 3.947817496296538e-13
3.4469541582030403 8.558087466344634e-20 7.830358780346848e-12 7.428498131868974e-12 4.01860648477876e-13
3.472904465399547 8.456356977159742e-20 7.795528752949917e-12 7.377341552294352e-12 4.1818720065556513e-13
3.4990501388274233 8.258718565718434e-20 7.670651739801168e-12 7.235786346944418e-12 4.348653928567517e-13
3.5253949054701885 7.329894176759572e-20 6.859222808733715e-12 6.4082013286976945e-12 4.510214800360204e-13
3.5519380250092896 6.449292890688603e-20 6.0806066924538845e-12 5.613384455399491e-12 4.672222370543926e-13
3.578680990867387 6.167356299589782e-20 5.858567777686377e-12 5.373593788384656e-12 4.849739893017201e-13
3.605625307711299 6.12146820740804e-20 5.858758878775575e-12 5.355111610729384e-12 5.036472680461905e-13
3.660119384959845 6.233537486069876e-20 6.056186766598875e-12 5.513412432951031e-12 5.427743336478442e-13
3.715437065384467 6.380064736310451e-20 6.2922276636084135e-12 5.7083572616355286e-12 5.838704019728855e-13
3.8285932144167436 6.80679296079175e-20 6.917532359463683e-12 6.2458672814236164e-12 6.716650780400676e-13
3.94519561050918 7.277830778849683e-20 7.621490763222063e-12 6.854885010477738e-12 7.666057527443273e-13
4.06534921144712 7.77032957649912e-20 8.385070722404314e-12 7.516679213056764e-12 8.683915093475485e-13
4.189162171576248 8.275235771737775e-20 9.201888835886387e-12 8.224868027143605e-12 9.77020808742785e-13
4.316745939156006 8.786155435499907e-20 1.006757339181745e-11 8.975707083338464e-12 1.0918663084789872e-12
4.448215356677963 9.296996998810516e-20 1.0977360552987315e-11 9.766282202602192e-12 1.2110783503851214e-12
4.58368876423945 9.804009406030537e-20 1.192856697566501e-11 1.0593966940588667e-11 1.3346000350763447e-12
4.723288106065518 1.0304386226241889e-19 1.2919211213846903e-11 1.1456195145181965e-11 1.463016068664933e-12
4.867139040275056 1.0792484478154813e-19 1.39432694073662e-11 1.2350764685928443e-11 1.592504721437762e-12
4.940699165968905 1.1032952912656614e-19 1.4469369547897632e-11 1.2811359948777988e-11 1.658009599119643e-12
5.015371051989984 1.1267677652781006e-19 1.5000540785695742e-11 1.3276760204239248e-11 1.7237805814564915e-12
5.091171501069577 1.1503074457088965e-19 1.5545370987661607e-11 1.375405848078029e-11 1.7913125068813123e-12
5.129500256944802 1.161820221770395e-19 1.5819160054662457e-11 1.3994074412022096e-11 1.82508564264036e-12
5.168117569889187 1.1732308387817269e-19 1.609478901691558e-11 1.4235561094557915e-11 1.8592279223576664e-12
5.20702561229733 1.1851251646348347e-19 1.6380357156095653e-11 1.4483623033288458e-11 1.896734122807195e-12
5.246226572918644 1.196846414979144e-19 1.6666902666443287e-11 1.4732567290656093e-11 1.9343353757871982e-12
5.265937586045735 1.2026403972177848e-19 1.6810511508914612e-11 1.485734600649873e-11 1.9531655024158788e-12
5.285722656980489 1.2083890456021082e-19 1.6954328145495106e-11 1.4982316156230415e-11 1.9720119892646906e-12
5.305582063971359 1.2140916957584964e-19 1.7098340364071894e-11 1.5107468024826552e-11 1.9908723392453395e-12
5.3255160863122235 1.2198418638987676e-19 1.7243867129394658e-11 1.5233954408823636e-11 2.0099127205710228e-12
5.365609099470188 1.2319254945857498e-19 1.7545789142580834e-11 1.549646436161571e-11 2.0493247809651232e-12
5.406003951863644 1.2438472435892664e-19 1.7848956864047597e-11 1.5760135719294747e-11 2.0888211447528515e-12
5.446702915881641 1.255603971952191e-19 1.815330906712013e-11 1.602492730683729e-11 2.1283817602828386e-12
5.487708281020852 1.2673633660989622e-19 1.8461271075574068e-11 1.6293095121373645e-11 2.168175954200419e-12
5.529022354014368 1.2804581198272176e-19 1.8792439352301593e-11 1.658278297760178e-11 2.2096563746998126e-12
5.570647458961463 1.2934702320781261e-19 1.912632566080853e-11 1.6875112044282015e-11 2.2512136165265166e-12
5.612585937458331 1.3064052604913797e-19 1.9463025755158838e-11 1.717019846897945e-11 2.292827286179389e-12
5.654840148729818 1.3195208772584404e-19 1.9806422173047153e-11 1.747171423159823e-11 2.33470794144892e-12
5.67608639626678 1.327161057524245e-19 1.9995950830308832e-11 1.7639290639464697e-11 2.3566601908441364e-12
5.686739436050992 1.330993849008657e-19 2.0091335737618863e-11 1.7723691016321866e-11 2.3676447212969964e-12
5.6974124697621304 1.3348357508869477e-19 2.0187146031080753e-11 1.7808511607617488e-11 2.378634423463266e-12
5.718818669136295 1.342548904353326e-19 2.0380079500088843e-11 1.7979451458478508e-11 2.4006280416103357e-12
5.740305295436557 1.350613369158097e-19 2.0579530762534123e-11 1.8156710358101534e-11 2.4228204044325953e-12
5.7835210386641895 1.369414932705975e-19 2.1023102710235206e-11 1.855444066893282e-11 2.4686620413023947e-12
5.827062130521658 1.3893885472326338e-19 2.149031574806189e-11 1.89752681387028e-11 2.515047609359089e-12
5.8489554468988025 1.4022633938511588e-19 2.177094813551505e-11 1.9230725609706043e-11 2.5402225258090078e-12
5.870931020387893 1.415539585123056e-19 2.205964044815121e-11 1.9494186802233522e-11 2.5654536459176882e-12
5.892989160043636 1.4292522906185722e-19 2.2357022927589486e-11 1.976628459628764e-11 2.5907383313018466e-12
5.915130176081913 1.4442980848981253e-19 2.267725977964116e-11 2.006027036390725e-11 2.6169894157339008e-12
5.95966208400165 1.4842992933011265e-19 2.3480781618851128e-11 2.0803250789047225e-11 2.6775308298039046e-12
6.004529249263818 1.538534685911511e-19 2.4521988787345223e-11 2.1775921040248307e-11 2.7460677470969185e-12
6.027089341400364 1.5750411930010832e-19 2.5198168682984553e-11 2.2412139179090746e-11 2.7860295038938018e-12
6.049734195844842 1.6169114655739705e-19 2.5965217651456874e-11 2.313677938335585e-11 2.828438268101027e-12
6.095279466722835 1.7349254385801091e-19 2.807009424036048e-11 2.513619171151466e-11 2.933902528845825e-12
6.141167624020661 1.9102604656804243e-19 3.113959590213252e-11 2.8067300990887354e-11 3.0722949112451735e-12
6.164241091010745 2.0212905549183322e-19 3.3073320224770995e-11 2.991343995207326e-11 3.1598802726977397e-12
6.187401249150058 2.1438990254708709e-19 3.52112984653574e-11 3.196162379585819e-11 3.2496746694992082e-12
6.1990139391386085 2.203291066396599e-19 3.6254666918270384e-11 3.295932832176495e-11 3.295338596505437e-12
6.204828454712694 2.2342500941916198e-19 3.679857464082584e-11 3.348018685872445e-11 3.3183877821013915e-12
6.210648424152782 2.2566805083383813e-19 3.720287097191691e-11 3.3865005748350314e-11 3.337865223566601e-12
6.233982942956859 2.3312196797885515e-19 3.857609329747212e-11 3.5170999631662724e-11 3.405093665809391e-12
6.239830258556775 2.339821538699972e-19 3.875475032163698e-11 3.5340840607588275e-11 3.4139097140487064e-12
6.245683058788269 2.339503302696429e-19 3.8785825354383235e-11 3.53630908324799e-11 3.4227345219033424e-12
6.257405133728602 2.3349243919511397e-19 3.87825650206028e-11 3.5344683583189086e-11 3.4378814374137045e-12
6.269149208991335 2.3170478349525665e-19 3.855787039861343e-11 3.511587356097794e-11 3.4419968376354834e-12
6.280915325867298 2.2762069790642966e-19 3.7949330831063634e-11 3.4516840095433784e-11 3.432490735629846e-12
6.304513850009849 2.177053482539369e-19 3.643259738447998e-11 3.3031412740934563e-11 3.4011846435454197e-12
6.32820103803542 2.0576931543003025e-19 3.4564502748258214e-11 3.120770117465202e-11 3.3568015736061882e-12
6.3519772230701035 1.949439176558376e-19 3.286911831828449e-11 2.955250622274174e-11 3.3166120955427513e-12
6.375842739491607 1.857451288886173e-19 3.1435796088137206e-11 2.8155055585147017e-11 3.2807405029901924e-12
6.399797922933955 1.786230169804167e-19 3.034401990524902e-11 2.708369094938555e-11 3.2603289558634733e-12
6.42384311029221 1.726371298859333e-19 2.943734012821644e-11 2.6194325444167077e-11 3.2430146840493573e-12
6.447978639727206 1.683898008269696e-19 2.8820984138575283e-11 2.5583269992909125e-11 3.2377141456661636e-12
6.472204850670314 1.6482856478165532e-19 2.8317451460329886e-11 2.5082664857077264e-11 3.2347866032526307e-12
6.496522083828205 1.6259471250591263e-19 2.8038628768734567e-11 2.4797073240320316e-11 3.2415555284142506e-12
