Dust emission spectrum from A.P. Jones, M. Kohler, N. Ysard, M. Bocchio, and L. Verstraete (2017), A&A, 602A, 46J 
inside the DustPedia framework.

lambda    nu*dP/dnu     j_nu    j_nu(carb.) j_nu(sil)
 (um)   (erg s-1 H-1) (Jy cm2 sr-1 H-1)
0.9927057738263894 1.0053197930580469e-19 2.64907475573225e-12 2.649074617893222e-12 1.3783902840551824e-19
1.0001793341362166 1.0221618806799076e-19 2.71373221815769e-12 2.713732052336142e-12 1.6582154850333356e-19
1.0077091589558085 1.0390779637685863e-19 2.7794110097939085e-12 2.7794108105773162e-12 1.9921659337546068e-19
1.0114953028030835 1.047563116133755e-19 2.812635812664912e-12 2.81263559441781e-12 2.1824710168703627e-19
1.0152956718711033 1.0560660167971658e-19 2.8461188753612826e-12 2.8461186363462604e-12 2.390150226375141e-19
1.0229392996569957 1.0731158103151315e-19 2.9138412711405134e-12 2.913840984758599e-12 2.8638191439892626e-19
1.0267826658714554 1.0816433898049811e-19 2.9480311077194415e-12 2.9480307943891636e-12 3.1333027745996617e-19
1.0306404723013447 1.0901873952133315e-19 2.982481663275177e-12 2.9824813205759945e-12 3.4269918204418605e-19
1.03451277320114 1.0987476234403195e-19 3.0171940254251715e-12 3.01719365073029e-12 3.746948822738524e-19
1.0383996230291617 1.10732388002426e-19 3.0521693065324888e-12 3.0521688969923043e-12 4.0954018464080427e-19
1.0403485208654093 1.1116179605927798e-19 3.0697558963156694e-12 3.069755468209777e-12 4.281058930812048e-19
1.0423010764483396 1.115915979344555e-19 3.0874086446849256e-12 3.087408197209237e-12 4.474756878654789e-19
1.0462171883269815 1.1245237448229332e-19 3.1229132046868436e-12 3.1229127159257354e-12 4.88761108408394e-19
1.0471985131304309 1.126678114214086e-19 3.131830924726785e-12 3.1318304250885288e-12 4.996382576205825e-19
1.048180758391296 1.128833449712327e-19 3.1407653144349353e-12 3.140764803688162e-12 5.107467732171043e-19
1.0501480137395462 1.1331470091228934e-19 3.158684179063463e-12 3.1586836453867654e-12 5.336766969985564e-19
1.0521189612883777 1.137464403614004e-19 3.176669952136229e-12 3.176669394546862e-12 5.575893678158591e-19
1.0531058218030118 1.1396217054332425e-19 3.185680073410421e-12 3.185679503482921e-12 5.699275003748411e-19
1.0540936079674168 1.141770695497543e-19 3.194681046049144e-12 3.1946804635198827e-12 5.825292613494146e-19
1.058054026499678 1.150375758802489e-19 3.2308515139228615e-12 3.230850878270685e-12 6.356521766595394e-19
1.0590464539527713 1.152529289780733e-19 3.239935874029027e-12 3.239935224389687e-12 6.496393393516484e-19
1.06003981227728 1.154683722713303e-19 3.2490369713475403e-12 3.249036307427112e-12 6.639204268976037e-19
1.0620293250338977 1.1589952865454466e-19 3.267289458543228e-12 3.2672887651552885e-12 6.933879398597762e-19
1.0660195594769086 1.1676291530490257e-19 3.3039961768089255e-12 3.3039954206933825e-12 7.56115542645835e-19
1.070024785945596 1.1762772429371202e-19 3.3409729987501816e-12 3.340972174506967e-12 8.242432152058586e-19
1.0740450607676866 1.1849394513199623e-19 3.3782212886039105e-12 3.378220390393387e-12 8.982105238240666e-19
1.07808044048254 1.1936156839765266e-19 3.4157424458992028e-12 3.415741467408597e-12 9.784906065830424e-19
1.0861967418109137 1.2109967591905832e-19 3.491571257139805e-12 3.4915700970757282e-12 1.1600640754074163e-18
1.0902777775684922 1.2196715960158532e-19 3.5297951599600234e-12 3.5297938974658913e-12 1.262494132121612e-18
1.0943741465085532 1.2283596813420063e-19 3.5682954884133317e-12 3.5682941148980175e-12 1.3735153137789454e-18
1.1026131145906286 1.2457754662406284e-19 3.6461317760445116e-12 3.6461301519432084e-12 1.624101303662089e-18
1.1109141095355224 1.263243970172062e-19 3.7250932566439786e-12 3.725091338756722e-12 1.9178872574307093e-18
1.1192775983109025 1.2807517349299551e-19 3.805153646204767e-12 3.8051513843444915e-12 2.2618602760965407e-18
1.1277040513999907 1.298236927666731e-19 3.8861408033612184e-12 3.886138139303116e-12 2.664058102221129e-18
1.1361939428280308 1.3157735949248694e-19 3.968286955592716e-12 3.968283821878072e-12 3.1337146452525636e-18
1.1447477501889525 1.3333624133843437e-19 4.051608188580581e-12 4.051604507157406e-12 3.681423174680864e-18
1.1533659546722406 1.351010269958286e-19 4.136139817006155e-12 4.1361354976800355e-12 4.319326119781934e-18
1.1707974979042381 1.3865367761558197e-19 4.309060700102582e-12 4.3090547767869085e-12 5.923315673686962e-18
1.1884924949847024 1.4223127657364093e-19 4.4870507819387206e-12 4.487042699866242e-12 8.08207247842187e-18
1.2064549276569216 1.4585782097794568e-19 4.671004179067758e-12 4.670993206165681e-12 1.0972902075685793e-17
1.2246888378427687 1.4951107020881388e-19 4.86036117285374e-12 4.8603463484257165e-12 1.4824428023526468e-17
1.2431983285522175 1.5318852113795413e-19 5.055173598378784e-12 5.055153667985483e-12 1.993039330057312e-17
1.2619875648066055 1.5689609581918624e-19 5.255773555121976e-12 5.255746888828216e-12 2.6666293761270988e-17
1.3004222497298317 1.6438164760428795e-19 5.6742328491587304e-12 5.674185786680662e-12 4.7062478068436064e-17
1.3400274889804893 1.7199371133437916e-19 6.1178061038412086e-12 6.117724572805797e-12 8.153103541316331e-17
1.3808389325824078 1.7976321073527828e-19 6.5889054095052825e-12 6.588766697862325e-12 1.3871164295494303e-16
1.4228933163050095 1.8775589457521004e-19 7.091455026091085e-12 7.0912231472322286e-12 2.318788588584681e-16
1.466228494730424 1.961064741496145e-19 7.632433338244186e-12 7.632052284774375e-12 3.8105346980819904e-16
1.5108834753276823 2.0480168719712853e-19 8.213607290106495e-12 8.212991433871718e-12 6.158562347761271e-16
1.5568984535646726 2.1383587187404632e-19 8.83711042995588e-12 8.836130482401712e-12 9.799475541684323e-16
1.6043148490894465 2.232584919485723e-19 9.507515084919166e-12 9.505977019709723e-12 1.5380652094445002e-15
1.6531753430134553 2.3312065953152295e-19 1.0229846458152256e-11 1.0227468119554694e-11 2.3783385975625292e-15
1.7035239163302658 2.434801769166172e-19 1.1009846824335033e-11 1.1006222723982943e-11 3.624100352088005e-15
1.755405889504358 2.545091624829975e-19 1.185906381278797e-11 1.1853619153007752e-11 5.444659780223262e-15
1.8088679632656115 2.6619961180566423e-19 1.2781555728933167e-11 1.2773488250039229e-11 8.067478893936427e-15
1.8639582606462262 2.7853578652029373e-19 1.3781186743359313e-11 1.3769392424659787e-11 1.1794318699527944e-14
1.9207263702978936 2.9153793669640344e-19 1.4863805299061587e-11 1.4846786163484508e-11 1.7019135577085112e-14
1.979223391128241 3.0524101034087253e-19 1.603640922990335e-11 1.601216002266946e-11 2.4249207233888548e-14
2.039501978296691 3.196701069331466e-19 1.7305955804340305e-11 1.727182823004179e-11 3.412757429851373e-14
2.1016163906111602 3.3494184082156505e-19 1.8684964745835532e-11 1.8637503633484778e-11 4.7461112350748595e-14
2.1656225393682647 3.5109878682851826e-19 2.0182805023409682e-11 2.0117560864639426e-11 6.524415877025298e-14
2.231578038680979 3.6807727489168226e-19 2.180321396592823e-11 2.171452922192402e-11 8.868474400421245e-14
2.299542257339062 3.858636291181548e-19 2.355291541511287e-11 2.3433684315908975e-11 1.1923109920389656e-13
2.369576372248914 4.0447613178183186e-19 2.5440933494355656e-11 2.5282334458568193e-11 1.5859903578746734e-13
2.4417434235010123 4.2394283102173747e-19 2.7477470821916556e-11 2.7268681145803674e-11 2.08789676112886e-13
2.5161083711144245 4.443603680323854e-19 2.967796330281842e-11 2.9405849027528273e-11 2.721142752901476e-13
2.5927381535095444 4.65912136594107e-19 3.206506430636022e-11 3.1713860300783755e-11 3.5120400557645743e-13
2.6717017477616296 4.887421701331488e-19 3.4660691308613026e-11 3.4211696773488656e-11 4.489945351243751e-13
2.753070231689431 5.130772931180667e-19 3.749466851391243e-11 3.692594976803241e-11 5.687187458800159e-13
2.836916847834745 5.396121575584193e-19 4.0634766207346376e-11 3.992085433276236e-11 7.1391187458403e-13
2.9233170693905177 5.6990162962035295e-19 4.422269995832738e-11 4.3334512286158416e-11 8.881876721689618e-13
2.967498994190263 5.879090564808243e-19 4.630950766214969e-11 4.5324142597052e-11 9.853650650976909e-13
3.0123486681368425 6.07061523505015e-19 4.854085021732724e-11 4.744906959522083e-11 1.0917806221063996e-12
3.0578761833420214 6.369286731604777e-19 5.1698760374447565e-11 5.049023739169005e-11 1.20852298275751e-12
3.1040917844459814 6.713862459771944e-19 5.5319268342851856e-11 5.3984202552300107e-11 1.33506579055174e-12
3.127460860933648 7.021068764322038e-19 5.828603905156461e-11 5.688341571757312e-11 1.402623333991479e-12
3.1510058709225794 7.406652346050094e-19 6.194989941698612e-11 6.047699962070124e-11 1.472899796284886e-12
3.162844764501044 7.749562153829145e-19 6.50615605104504e-11 6.355234712955278e-11 1.5092133808976418e-12
3.1747281389236908 8.135675561468571e-19 6.855980846566271e-11 6.701358145700854e-11 1.5462270086541448e-12
3.1986289994194426 9.173390921482014e-19 7.788668226572367e-11 7.626410234559807e-11 1.622579920125609e-12
3.2227097969389145 1.1553998287775678e-18 9.883776841230649e-11 9.713442644825038e-11 1.7033419640561497e-12
3.2348180950136065 1.3778569273889904e-18 1.1831053572783569e-10 1.165641302393908e-10 1.7464054884448548e-12
3.240889293275058 1.5438360839091816e-18 1.328112354149778e-10 1.3104211465945215e-10 1.7691207555256657e-12
3.2469718861334385 1.736144976335591e-18 1.4963526233429885e-10 1.4784263803391982e-10 1.7926243003790343e-12
3.2714166318528037 2.7424544004318383e-18 2.381467754805731e-10 2.362571406120255e-10 1.8896348685476296e-12
3.2744851364798273 2.805339047610063e-18 2.4383599317440634e-10 2.419349595184439e-10 1.9010336559623818e-12
3.2775565192852394 2.8698822658165947e-18 2.496799698297383e-10 2.477674834628829e-10 1.9124863668554516e-12
3.283707930232385 2.8080845547948104e-18 2.4476208024280755e-10 2.4282918120283786e-10 1.932899039969696e-12
3.2898708863219004 2.611365654233405e-18 2.2804259525760764e-10 2.2609118242459697e-10 1.9514128330106813e-12
3.29141343181113 2.5648708511934724e-18 2.2408736618259184e-10 2.221313060145419e-10 1.956060168049946e-12
3.292184975758714 2.542009449771447e-18 2.221420740442611e-10 2.2018368737370839e-10 1.9583866705526923e-12
3.295272960557952 2.3996289157752675e-18 2.0989636349849114e-10 2.0792893906090972e-10 1.9674244375815066e-12
3.3076538914384823 1.9023971440495915e-18 1.6702853717174058e-10 1.650248436634673e-10 2.003693508273317e-12
3.310756385682612 1.8000712951409536e-18 1.5819267317007773e-10 1.5617984407491703e-10 2.01282909516071e-12
3.313861789986515 1.7052200101724872e-18 1.4999757739973988e-10 1.4797558537487789e-10 2.021992024862021e-12
3.3200813396944477 1.5729287002503362e-18 1.3862041465110077e-10 1.3657868454995602e-10 2.041730101144721e-12
3.345076488085796 1.3433501120708332e-18 1.1927919560982074e-10 1.1714942374662807e-10 2.1297718631926563e-12
3.3482140837626964 1.3529996171681499e-18 1.2024868219126303e-10 1.181069800754262e-10 2.141702115836831e-12
3.3513546224236106 1.3627325382616993e-18 1.21227303140655e-10 1.190736203675796e-10 2.153682773075429e-12
3.3576445397418455 1.4298081178794389e-18 1.274330004337076e-10 1.252542575115892e-10 2.178742922118427e-12
3.3702598118196083 1.6716340041192069e-18 1.495457281466085e-10 1.473144255477353e-10 2.231302598873236e-12
3.382922481734668 1.7301633607730808e-18 1.5536335466210915e-10 1.530810714062833e-10 2.2822832558258396e-12
3.389271646505754 1.7603003623654972e-18 1.5836623426122594e-10 1.5605813126415544e-10 2.3081029970704602e-12
3.395632727569191 1.7934991860030305e-18 1.6165581359511687e-10 1.593211015969768e-10 2.334711998140052e-12
3.421196662673239 1.9543628350565458e-18 1.774813273587702e-10 1.7503657995837983e-10 2.444747400390297e-12
3.4276182099114902 1.9261645896181447e-18 1.7524888724760954e-10 1.727797002051432e-10 2.46918704246628e-12
3.4340518103208963 1.7967288703339353e-18 1.6377922904927548e-10 1.6128698307603658e-10 2.4922459732388498e-12
3.4469541582030403 1.6110565813874393e-18 1.474061944016441e-10 1.4486980447229012e-10 2.536389929353993e-12
3.472904465399547 1.5608376735274965e-18 1.4388648676415977e-10 1.4124823048839827e-10 2.638256275761498e-12
3.4990501388274233 1.484376140770462e-18 1.3786802802535984e-10 1.3512578408290312e-10 2.742243942456717e-12
3.5253949054701885 1.2099091738545087e-18 1.1322177921902663e-10 1.1037892167432369e-10 2.8428575447029475e-12
3.5519380250092896 9.486678551159114e-19 8.944354375751996e-11 8.649988912483364e-11 2.9436546326863078e-12
3.578680990867387 8.484367397840147e-19 8.059570265843939e-11 7.75416099656593e-11 3.0540926927801046e-12
3.605625307711299 8.1157115003336e-19 7.767417096542163e-11 7.450396164725948e-11 3.17020931816216e-12
3.660119384959845 7.920370326097947e-19 7.695027432283754e-11 7.353701262589407e-11 3.413261696943449e-12
3.715437065384467 7.806535903478753e-19 7.699059993743475e-11 7.332241847888497e-11 3.668181458549787e-12
3.8285932144167436 7.906871444478944e-19 8.035507968930547e-11 7.614356908893685e-11 4.2115106003685975e-12
3.94519561050918 8.087478081589587e-19 8.469369702264274e-11 7.989650450458308e-11 4.7971925180596925e-12
4.06534921144712 8.293850580880254e-19 8.950009519810866e-11 8.407713278679093e-11 5.422962411317718e-12
4.189162171576248 8.509254873882146e-19 9.462113175446714e-11 8.85327077512384e-11 6.088424003228752e-12
4.316745939156006 8.72583603062384e-19 9.998456695669903e-11 9.319527762009752e-11 6.789289336601532e-12
4.448215356677963 8.939063183209114e-19 1.0554732843366048e-10 9.803356382231208e-11 7.51376461134845e-12
4.58368876423945 9.147405790426708e-19 1.1129675432336183e-10 1.0303560689302889e-10 8.261147430332922e-12
4.723288106065518 9.35108306330779e-19 1.1723999326174317e-10 1.0820532171335062e-10 9.034671548392545e-12
4.867139040275056 9.549655655849945e-19 1.2337606028214491e-10 1.1356558254925707e-10 9.810477732887859e-12
4.940699165968905 9.651105609280047e-19 1.2657120420251628e-10 1.1636985221606879e-10 1.0201351986447495e-11
5.015371051989984 9.74771530434e-19 1.2977030892786812e-10 1.19177600591853e-10 1.059270833601508e-11
5.091171501069577 9.853231684407009e-19 1.3315756803355637e-10 1.221639319136918e-10 1.0993636119864532e-11
5.129500256944802 9.90394108571118e-19 1.3485049259004456e-10 1.2365680688296285e-10 1.1193685707081718e-11
5.168117569889187 9.95456734011338e-19 1.3656021969229097e-10 1.2516450841185137e-10 1.139571128043959e-11
5.20702561229733 1.0015012944623908e-18 1.384237664098613e-10 1.2680554454669053e-10 1.1618221863170793e-11
5.246226572918644 1.0074357998701457e-18 1.402923065898873e-10 1.284513258755441e-10 1.1840980714343191e-11
5.265937586045735 1.010361831703605e-18 1.4122841074783681e-10 1.292759962795894e-10 1.1952414468247424e-11
5.285722656980489 1.0132604340894552e-18 1.4216572021173468e-10 1.3010185659372133e-10 1.206386361801337e-11
5.305582063971359 1.0161316610586518e-18 1.4310422397408922e-10 1.309289115100433e-10 1.217531246404596e-11
5.3255160863122235 1.0191692802151604e-18 1.4407129457109277e-10 1.3178351084336423e-10 1.2287783727728565e-11
5.365609099470188 1.0266587092960808e-18 1.4622261909402648e-10 1.3370196251855823e-10 1.2520656575468274e-11
5.406003951863644 1.0341123430055875e-18 1.4839303377498113e-10 1.3563934551473983e-10 1.2753688260241344e-11
5.446702915881641 1.0415357683412366e-18 1.5058347320900977e-10 1.375967205393424e-10 1.2986752669667366e-11
5.487708281020852 1.0492976193618508e-18 1.528477807404214e-10 1.3962689722118249e-10 1.3220883519238938e-11
5.529022354014368 1.0602580135217054e-18 1.556070761579225e-10 1.4214211172892104e-10 1.3464964429001457e-11
5.570647458961463 1.0714283073198105e-18 1.5843029255558302e-10 1.4472116072092217e-10 1.3709131834660865e-11
5.612585937458331 1.0828360791351064e-18 1.6132257833143392e-10 1.4736932053214116e-10 1.395325779929272e-11
5.654840148729818 1.0950506503452505e-18 1.6437053672595947e-10 1.5017191370865705e-10 1.4198623017302471e-11
5.67608639626678 1.1036560902258815e-18 1.6628466295489126e-10 1.519573361973731e-10 1.4327326757518225e-11
5.686739436050992 1.1080345272151715e-18 1.6725767524571783e-10 1.5286598391990477e-10 1.4391691325813108e-11
5.6974124697621304 1.1124653949984209e-18 1.6824168343135024e-10 1.5378562178509515e-10 1.4456061646255073e-11
5.718818669136295 1.1214905084128393e-18 1.702438223735169e-10 1.5565901099254456e-10 1.4584811380972347e-11
5.740305295436557 1.131412381882171e-18 1.723952720279243e-10 1.5768061256946756e-10 1.471465945845675e-11
5.7835210386641895 1.157539106765825e-18 1.7770409064085183e-10 1.627212485275601e-10 1.4982842113291722e-11
5.827062130521658 1.1869224080367649e-18 1.8358678260278753e-10 1.6833290038037117e-10 1.5253882222416366e-11
5.8489554468988025 1.2081311167880725e-18 1.8756932541937842e-10 1.721680961940955e-10 1.540122922528293e-11
5.870931020387893 1.2305059520377102e-18 1.9176093100146074e-10 1.762121344674636e-10 1.554879653399711e-11
5.892989160043636 1.2541412059671999e-18 1.9617854650495862e-10 1.8048197914817058e-10 1.569656735678803e-11
5.915130176081913 1.2809418107299754e-18 2.0112364966942766e-10 1.8527357720017064e-10 1.5850072469257e-11
5.95966208400165 1.3569922912945165e-18 2.1466856310014233e-10 1.9846319141032723e-10 1.6205371689815134e-11
6.004529249263818 1.4662131284942013e-18 2.336928912037612e-10 2.1708455624950358e-10 1.660833495425757e-11
6.027089341400364 1.542343293772773e-18 2.4675053996209737e-10 2.2990662995202096e-10 1.684391001007645e-11
6.049734195844842 1.6313984182382266e-18 2.619785678293847e-10 2.4488451471848773e-10 1.7094053110896964e-11
6.095279466722835 1.888610944550057e-18 3.055663720066461e-10 2.878482213418338e-10 1.7718150664812338e-11
6.141167624020661 2.2804709722021793e-18 3.7174482651309396e-10 3.5320524025922807e-10 1.853958625386601e-11
6.164241091010745 2.5299250021984683e-18 4.13958396722163e-10 3.948977780423382e-10 1.9060618679824876e-11
6.187401249150058 2.8096771838346318e-18 4.6146008154268023e-10 4.418655117370984e-10 1.9594569805581752e-11
6.1990139391386085 2.945245395886568e-18 4.846336121857465e-10 4.647675439554915e-10 1.986606823025493e-11
6.204828454712694 3.0162908096022684e-18 4.967895169128125e-10 4.767864319343843e-10 2.0003084978428163e-11
6.210648424152782 3.0673951046006015e-18 5.056803737821555e-10 4.855617490089452e-10 2.0118624773210397e-11
6.233982942956859 3.2375950638804883e-18 5.357443158467896e-10 5.152279319230023e-10 2.051638392378722e-11
6.239830258556775 3.2573532883703903e-18 5.395194091182556e-10 5.189516628615585e-10 2.0567746256697112e-11
6.245683058788269 3.25595396803683e-18 5.397934759084806e-10 5.191743248189695e-10 2.0619151089511185e-11
6.257405133728602 3.2440953889448965e-18 5.388368924856645e-10 5.181300009524994e-10 2.0706891533165194e-11
6.269149208991335 3.20154211514761e-18 5.327669290612265e-10 5.120386336025234e-10 2.0728295458703335e-11
6.280915325867298 3.105553620108742e-18 5.177634671499043e-10 4.970956489792933e-10 2.0667818170610976e-11
6.304513850009849 2.8733115527462578e-18 4.808435061470124e-10 4.6037048639939585e-10 2.0473019747616477e-11
6.32820103803542 2.5920234330361144e-18 4.354001999155765e-10 4.152005179504614e-10 2.019968196511501e-11
6.3519772230701035 2.3358745650785454e-18 3.938473094184218e-10 3.7389570619793885e-10 1.9951603220483022e-11
6.375842739491607 2.119725215282607e-18 3.5874561033826534e-10 3.3901604937530624e-10 1.972956096295915e-11
6.399797922933955 1.948311697151033e-18 3.3097419313246753e-10 3.1137387363901335e-10 1.9600319493454115e-11
6.42384311029221 1.8050380442364526e-18 3.077873160175179e-10 2.8829760463737473e-10 1.948971138014311e-11
6.447978639727206 1.7007300816959257e-18 2.910907576814802e-10 2.7163960831460216e-10 1.9451149366877988e-11
6.472204850670314 1.6132660220168268e-18 2.771581632806001e-10 2.5773134898255287e-10 1.9426814298047257e-11
