Dust emission spectrum from A.P. Jones, M. Kohler, N. Ysard, M. Bocchio, and L. Verstraete (2017), A&A, 602A, 46J 
inside the DustPedia framework.

lambda    nu*dP/dnu     j_nu    j_nu(carb.) j_nu(sil)
 (um)   (erg s-1 H-1) (Jy cm2 sr-1 H-1)
0.9927057738263894 1.791997180690925e-19 4.722014354528474e-12 4.722014216591245e-12 1.3793722977021644e-19
1.0001793341362166 1.8220178335903774e-19 4.837265594157347e-12 4.8372654282176625e-12 1.6593968559808645e-19
1.0077091589558085 1.8521702853115634e-19 4.9543370781699944e-12 4.954336878811473e-12 1.9935852227300361e-19
1.0114953028030835 1.8672947952949995e-19 5.013559692167438e-12 5.013559473764849e-12 2.184025885870457e-19
1.0152956718711033 1.8824509119417e-19 5.073242569311232e-12 5.073242330125927e-12 2.391853053337714e-19
1.0229392996569957 1.912841464239024e-19 5.193956095019921e-12 5.193955808433977e-12 2.8658594293238427e-19
1.0267826658714554 1.9280414691686993e-19 5.254898501351009e-12 5.2548981877975034e-12 3.1355350495368666e-19
1.0306404723013447 1.9432707151438528e-19 5.3163055270530314e-12 5.3163051841096985e-12 3.4294333297695884e-19
1.03451277320114 1.9585288377058214e-19 5.378179102901044e-12 5.378178727939218e-12 3.749618280671474e-19
1.0383996230291617 1.9738154876523426e-19 5.440521203280608e-12 5.440520793448652e-12 4.0983195545126116e-19
1.0403485208654093 1.981469405528017e-19 5.471868579511905e-12 5.471868151101015e-12 4.2841089075437624e-19
1.0423010764483396 1.989130331391796e-19 5.5033338479041715e-12 5.503333400109687e-12 4.477944852607156e-19
1.0462171883269815 2.0044730512941242e-19 5.5666191035485974e-12 5.566618614439278e-12 4.891093189871562e-19
1.0471985131304309 2.0083130512458112e-19 5.582514509755448e-12 5.5825140097612285e-12 4.999942174624453e-19
1.048180758391296 2.012154769997026e-19 5.5984396196728425e-12 5.598439108562196e-12 5.111106471556056e-19
1.0501480137395462 2.019843346038194e-19 5.630379085813317e-12 5.630378551756408e-12 5.340569070200512e-19
1.0521189612883777 2.0275387443571228e-19 5.662437774340207e-12 5.662437216353593e-12 5.579866140638493e-19
1.0531058218030118 2.03138395082182e-19 5.678497823204097e-12 5.678497252870561e-12 5.703335367417775e-19
1.0540936079674168 2.0352143377919468e-19 5.694541553072629e-12 5.694540970128354e-12 5.829442756534395e-19
1.058054026499678 2.0505520747807558e-19 5.759013282824694e-12 5.759012646719657e-12 6.361050375940904e-19
1.0590464539527713 2.0543905371123166e-19 5.775205593015575e-12 5.775204942913409e-12 6.5010216523212585e-19
1.06003981227728 2.0582306032429103e-19 5.79142772514474e-12 5.791427060751313e-12 6.643934271263962e-19
1.0620293250338977 2.065915532590458e-19 5.823961598664225e-12 5.8239609047822925e-12 6.938819337796923e-19
1.0660195594769086 2.0813044834085175e-19 5.889388799517484e-12 5.889388042863255e-12 7.566542259129489e-19
1.070024785945596 2.0967187175731422e-19 5.9552972425910005e-12 5.955296417760565e-12 8.248304350195262e-19
1.0740450607676866 2.1121580438925204e-19 6.021689345244859e-12 6.021688446394417e-12 8.98850440546102e-19
1.07808044048254 2.1276222899588624e-19 6.088567586882235e-12 6.088566607694515e-12 9.79187717655446e-19
1.0861967418109137 2.158601524313251e-19 6.223725192252292e-12 6.2237240313617475e-12 1.1608905457958112e-18
1.0902777775684922 2.17406301651501e-19 6.291855232351433e-12 6.291853968957854e-12 1.2633935772797211e-18
1.0943741465085532 2.1895480252134824e-19 6.360477683130879e-12 6.360476308637026e-12 1.374493854325895e-18
1.1026131145906286 2.2205883345868575e-19 6.499211059825937e-12 6.499209434567567e-12 1.6252583704687306e-18
1.1109141095355224 2.2517221459693454e-19 6.639948560881581e-12 6.639946641627951e-12 1.919253627668483e-18
1.1192775983109025 2.282925414002705e-19 6.782643135424687e-12 6.782640871952984e-12 2.2634717047930315e-18
1.1277040513999907 2.314087858182465e-19 6.9269877143366815e-12 6.9269850483806115e-12 2.66595607077401e-18
1.1361939428280308 2.3453414000205276e-19 7.073396000658035e-12 7.07339286471082e-12 3.1359472136208863e-18
1.1447477501889525 2.376687170202784e-19 7.221896390529436e-12 7.221892706483486e-12 3.684045949840898e-18
1.1533659546722406 2.4081373612112726e-19 7.372551523856007e-12 7.37254720145265e-12 4.322403359403002e-18
1.1707974979042381 2.4714463094099544e-19 7.680728234138949e-12 7.680722306603294e-12 5.927535651797825e-18
1.1884924949847024 2.5351954723433953e-19 7.997924999749399e-12 7.997916911918966e-12 8.087830430695271e-18
1.2064549276569216 2.5998115630671605e-19 8.325731588785746e-12 8.32572060806619e-12 1.0980719556489281e-17
1.2246888378427687 2.6648969021975216e-19 8.663145421278301e-12 8.663130586288834e-12 1.4834989466679544e-17
1.2431983285522175 2.73040537793675e-19 9.010252907257513e-12 9.010232962665101e-12 1.9944592412709406e-17
1.2619875648066055 2.796440776988535e-19 9.367638759538715e-12 9.367612074246952e-12 2.6685291765458127e-17
1.3004222497298317 2.929727534106706e-19 1.0113024449743649e-11 1.011297735373662e-11 4.7096007030631017e-17
1.3400274889804893 3.065198388594758e-19 1.0902892475395361e-11 1.0902810886274377e-11 8.158912098613522e-17
1.3808389325824078 3.203374215951776e-19 1.174140671710434e-11 1.1741267906638337e-11 1.3881046600089212e-16
1.4228933163050095 3.3453856761718906e-19 1.2635370048528204e-11 1.2635138004470702e-11 2.320440575010295e-16
1.466228494730424 3.493578581799131e-19 1.3596953263846104e-11 1.3596571938900421e-11 3.81324945682565e-16
1.5108834753276823 3.6476434062094745e-19 1.4628937331025602e-11 1.462832103603322e-11 6.162949923864531e-16
1.5568984535646726 3.807384074773476e-19 1.573462545042346e-11 1.573364480472024e-11 9.806457032214627e-16
1.6043148490894465 3.9735595006854244e-19 1.69214960487563e-11 1.6919956887775184e-11 1.5391609811160607e-15
1.6531753430134553 4.146926246070099e-19 1.819762300597061e-11 1.81952429729611e-11 2.3800330095059147e-15
1.7035239163302658 4.328321186943399e-19 1.957208750143572e-11 1.9568460819147263e-11 3.626682288456064e-15
1.755405889504358 4.520573064250665e-19 2.106398210433799e-11 2.1058533565590928e-11 5.448538747065381e-15
1.8088679632656115 4.72324965729015e-19 2.2678650170380894e-11 2.267057694393166e-11 8.073226449227713e-15
1.8639582606462262 4.935723878099764e-19 2.442060796837488e-11 2.44088052469885e-11 1.1802721386382143e-14
1.9207263702978936 5.157947454842736e-19 2.6297341464486845e-11 2.6280310203879865e-11 1.7031260606976763e-14
1.979223391128241 5.390064986981439e-19 2.8317717796334342e-11 2.8293451313113603e-11 2.4266483220746268e-14
2.039501978296691 5.631975760397386e-19 3.0489783525782254e-11 3.045563163780126e-11 3.4151887980993355e-14
2.1016163906111602 5.88513379651536e-19 3.283063030963515e-11 3.278313538432115e-11 4.7494925314006176e-14
2.1656225393682647 6.149598842684627e-19 3.535077849035969e-11 3.5285487849359374e-11 6.529064100031467e-14
2.231578038680979 6.423475367743547e-19 3.804972960881562e-11 3.796098168268519e-11 8.874792613042056e-14
2.299542257339062 6.705694799347072e-19 4.0931212607296996e-11 4.081189656367067e-11 1.1931604362632704e-13
2.369576372248914 6.995702027740922e-19 4.400190173151773e-11 4.384318970420723e-11 1.5871202731050911e-13
2.4417434235010123 7.293079708810977e-19 4.7269435932622293e-11 4.706049750741152e-11 2.0893842521077474e-13
2.5161083711144245 7.598594484957504e-19 5.074953224926933e-11 5.0477224110212915e-11 2.7230813905642965e-13
2.5927381535095444 7.914556685598022e-19 5.446966265682883e-11 5.411820844118464e-11 3.514542156442012e-13
2.6717017477616296 8.242599116185979e-19 5.845498935950966e-11 5.800567494490992e-11 4.4931441459974043e-13
2.753070231689431 8.585892862355029e-19 6.27439980462922e-11 6.21748741252044e-11 5.691239210877992e-13
2.836916847834745 8.95598605256857e-19 6.744184583405716e-11 6.672742534358131e-11 7.144204904758378e-13
2.9233170693905177 9.379973161291444e-19 7.278584884996459e-11 7.18970284017051e-11 8.888204482594784e-13
2.967498994190263 9.63925983130301e-19 7.592830423249965e-11 7.494223715872391e-11 9.86067073775769e-13
3.0123486681368425 9.91524121829572e-19 7.928261308130583e-11 7.819005463634127e-11 1.0925584449645704e-12
3.0578761833420214 1.037775315811763e-18 8.423501662822947e-11 8.302563265125611e-11 1.2093839769733629e-12
3.1040917844459814 1.0918541166814173e-18 8.99639681835223e-11 8.86279512452143e-11 1.3360169383080073e-12
3.127460860933648 1.1427875886417605e-18 9.48695480062697e-11 9.346592539415542e-11 1.4036226121142918e-12
3.1510058709225794 1.2075943126889736e-18 1.0100426307642501e-10 9.953031393459747e-11 1.4739491418275241e-12
3.162844764501044 1.2666988312576294e-18 1.0634588254468508e-10 1.048355939471718e-10 1.5102885975132794e-12
3.1747281389236908 1.3334811577353244e-18 1.1237322835228841e-10 1.1082589975721033e-10 1.547328595078102e-12
3.1986289994194426 1.5142771778481945e-18 1.2856971475739185e-10 1.2694597885434665e-10 1.623735903045188e-12
3.2227097969389145 1.9341875704279293e-18 1.6545855243390447e-10 1.637539969492123e-10 1.7045554846921622e-12
3.2348180950136065 2.3283392099923482e-18 1.9992428372975165e-10 1.981766340407036e-10 1.7476496890480182e-12
3.240889293275058 2.622929795780974e-18 2.2564218456557267e-10 2.238718034262899e-10 1.7703811392828503e-12
3.2469718861334385 2.9644271074970715e-18 2.55498725018623e-10 2.53704823589736e-10 1.7939014288870092e-12
3.2714166318528037 4.752949989985456e-18 4.127323735837596e-10 4.108413924729681e-10 1.890981110791348e-12
3.2744851364798273 4.864447641048878e-18 4.2281071972763575e-10 4.2090833170853334e-10 1.902388019102577e-12
3.2775565192852394 4.978900062929164e-18 4.3316467449012765e-10 4.3125082560081865e-10 1.9138488893091027e-12
3.283707930232385 4.8677137770072946e-18 4.2428628014512844e-10 4.2235200403999996e-10 1.9342761051285597e-12
3.2898708863219004 4.5161530915759764e-18 3.943818706178031e-10 3.9242906752975724e-10 1.9528030880459058e-12
3.29141343181113 4.433048276121605e-18 3.8730609453264694e-10 3.8534864079863695e-10 1.957453734009865e-12
3.292184975758714 4.392183835614957e-18 3.8382580635760763e-10 3.8186602446361294e-10 1.9597818939946997e-12
3.295272960557952 4.137942825159086e-18 3.61947276787569e-10 3.599784506877229e-10 1.968826099846149e-12
3.3076538914384823 3.2498336942862794e-18 2.85332097825059e-10 2.833269768151613e-10 2.005121009897678e-12
3.310756385682612 3.066987569357904e-18 2.6953096995979517e-10 2.6751670685449714e-10 2.014263105298009e-12
3.313861789986515 2.8974640586399177e-18 2.5487185630365873e-10 2.5284842374066645e-10 2.023432562992239e-12
3.3200813396944477 2.660660044412822e-18 2.344809389919724e-10 2.3243775429059872e-10 2.043184701373678e-12
3.345076488085796 2.246888683863592e-18 1.995064968006839e-10 1.9737520761321897e-10 2.1312891874648927e-12
3.3482140837626964 2.2634540371301787e-18 2.01165884832303e-10 1.9902265689266303e-10 2.143227939640038e-12
3.3513546224236106 2.28016618432759e-18 2.0284126890457205e-10 2.0068605177225247e-10 2.1552171323196103e-12
3.3576445397418455 2.3983743445495237e-18 2.1375738119493842e-10 2.115770860598455e-10 2.1802951350928902e-12
3.3702598118196083 2.8265752518876465e-18 2.5286770498991237e-10 2.50634812732705e-10 2.232892257207299e-12
3.382922481734668 2.928283973356705e-18 2.6295090499472006e-10 2.6066699576014977e-10 2.2839092345703396e-12
3.389271646505754 2.980682597698581e-18 2.6815848511850836e-10 2.658487377478029e-10 2.3097473707054035e-12
3.395632727569191 3.0384891651260607e-18 2.7387212769416377e-10 2.7153575236520195e-10 2.3363753289618574e-12
3.421196662673239 3.319504636866576e-18 3.0145379279463565e-10 2.990073036703385e-10 2.4464891242970725e-12
3.4276182099114902 3.2681276553073343e-18 2.973451687684137e-10 2.948742225903813e-10 2.4709461780323826e-12
3.4340518103208963 3.0365730905817802e-18 2.767961309793101e-10 2.74302109442513e-10 2.494021536797057e-12
3.4469541582030403 2.703823297532061e-18 2.4739062999293663e-10 2.448524330503197e-10 2.538196942616858e-12
3.472904465399547 2.6095993620691196e-18 2.4056703040843375e-10 2.3792689454624666e-10 2.640135862187057e-12
3.4990501388274233 2.4686061195245885e-18 2.2928275948543415e-10 2.2653856187208604e-10 2.744197613348043e-12
3.5253949054701885 1.975186522568176e-18 1.8483547129588331e-10 1.819905883996253e-10 2.8448828962580316e-12
3.5519380250092896 1.5053480294396125e-18 1.4192919219870392e-10 1.3898344040307706e-10 2.945751795626831e-12
3.578680990867387 1.3218026814773267e-18 1.2556223804805306e-10 1.2250596951237988e-10 3.0562685356731876e-12
3.605625307711299 1.2509081792228966e-18 1.1972241222597628e-10 1.1654994433935914e-10 3.172467886617145e-12
3.660119384959845 1.2053793362180321e-18 1.171085022116052e-10 1.1369280878715623e-10 3.415693424448997e-12
3.715437065384467 1.174134923252008e-18 1.1579701069251866e-10 1.1212621589267247e-10 3.670794799846204e-12
3.8285932144167436 1.1693948058436913e-18 1.1884196356504948e-10 1.1462745253662234e-10 4.214511028427189e-12
3.94519561050918 1.1782391217566184e-18 1.2338757050290046e-10 1.1858696029641508e-10 4.800610206485408e-12
4.06534921144712 1.1911420179859858e-18 1.2853779190328544e-10 1.2311096598309326e-10 5.426825920192224e-12
4.189162171576248 1.2053062937174627e-18 1.340275350928548e-10 1.2793477348254269e-10 6.092761610312134e-12
4.316745939156006 1.219551379388637e-18 1.397417005335364e-10 1.3294757426877383e-10 6.7941262647625725e-12
4.448215356677963 1.2333426839806218e-18 1.4562602665330085e-10 1.3810690897216224e-10 7.519117681138553e-12
4.58368876423945 1.246600250539282e-18 1.5167421780819424e-10 1.434071848463031e-10 8.267032961891115e-12
4.723288106065518 1.2595345748370998e-18 1.579152105345529e-10 1.4887410236885454e-10 9.04110816569836e-12
4.867139040275056 1.2723979509348099e-18 1.643864993197378e-10 1.5456903225797225e-10 9.817467061765574e-12
4.940699165968905 1.2795572945138023e-18 1.678099009267885e-10 1.5760128113891763e-10 1.0208619787870822e-11
5.015371051989984 1.286141384885461e-18 1.7122265026266386e-10 1.6062239530921772e-10 1.0600254953446152e-11
5.091171501069577 1.294521303163757e-18 1.7494291621063208e-10 1.6394144783830277e-10 1.1001468372329269e-11
5.129500256944802 1.2984729483650206e-18 1.7679801927991482e-10 1.6559635879801682e-10 1.1201660481898063e-11
5.168117569889187 1.3024807264728365e-18 1.786788396471678e-10 1.672750096617983e-10 1.1403829985369467e-11
5.20702561229733 1.308176312563516e-18 1.8081124139775748e-10 1.6918474230530312e-10 1.1626499092454311e-11
5.246226572918644 1.3137668955322895e-18 1.8295100106569306e-10 1.7110158442083756e-10 1.18494166448555e-11
5.265937586045735 1.316523869059592e-18 1.8402375060563766e-10 1.720628208175581e-10 1.1960929788079531e-11
5.285722656980489 1.319255895876996e-18 1.8509847840794345e-10 1.7302602006980962e-10 1.2072458338133825e-11
5.305582063971359 1.3219634466924742e-18 1.861752373348392e-10 1.7399125075060072e-10 1.2183986584238383e-11
5.3255160863122235 1.3249793328345876e-18 1.8730106123402977e-10 1.7500452325763065e-10 1.2296537976399189e-11
5.365609099470188 1.3335086833326435e-18 1.899259515318566e-10 1.7739637480092258e-10 1.2529576730934045e-11
5.406003951863644 1.342074982329189e-18 1.925850508683625e-10 1.7982227643269921e-10 1.276277443566335e-11
5.446702915881641 1.350691029414523e-18 1.95280616013232e-10 1.8228461112487221e-10 1.2996004888359786e-11
5.487708281020852 1.3599964484101824e-18 1.9810627139397568e-10 1.8487596885300453e-10 1.3230302540971192e-11
5.529022354014368 1.3749377033239942e-18 2.0179053889240504e-10 1.8831598154985924e-10 1.3474557342545872e-11
5.570647458961463 1.3903619078480135e-18 2.0559046490895948e-10 1.9187156620731934e-10 1.3718898701640152e-11
5.612585937458331 1.4063208279639413e-18 2.0951583189724231e-10 1.9555263330705945e-10 1.3963198590182839e-11
5.654840148729818 1.4238038339670621e-18 2.1371742056667318e-10 1.9950868195168212e-10 1.4208738614991043e-11
5.67608639626678 1.4369212408063035e-18 2.1649675685774335e-10 2.02159222809472e-10 1.4337534048271355e-11
5.686739436050992 1.4436256037037479e-18 2.179151068582141e-10 2.0351316238606893e-10 1.4401944472145161e-11
5.6974124697621304 1.4504306058190538e-18 2.1935323824045522e-10 2.0488687758819118e-10 1.4466360652264071e-11
5.718818669136295 1.4643535290724568e-18 2.2229090681137842e-10 2.0769570469856446e-10 1.459520211281401e-11
5.740305295436557 1.4798715070589063e-18 2.2549059486284092e-10 2.107654521642119e-10 1.472514269862903e-11
5.7835210386641895 1.5219458569259794e-18 2.3364740156840125e-10 2.186538851521954e-10 1.49935164162058e-11
5.827062130521658 1.5698766252610287e-18 2.4282008391071414e-10 2.2755533428689107e-10 1.5264749623823024e-11
5.8489554468988025 1.605220190214199e-18 2.492196948196477e-10 2.338074932177785e-10 1.5412201601869205e-11
5.870931020387893 1.6426705352445208e-18 2.5599228564926405e-10 2.404324116065475e-10 1.5559874042716632e-11
5.892989160043636 1.6823960792316607e-18 2.631681471742827e-10 2.474603970316514e-10 1.5707750142631377e-11
5.915130176081913 1.7276906014614797e-18 2.7126871521781465e-10 2.5540735060028113e-10 1.5861364617533518e-11
5.95966208400165 1.8574952438432907e-18 2.938453206545485e-10 2.7762840368881417e-10 1.621691696573437e-11
6.004529249263818 2.0454925856483004e-18 3.260215496548794e-10 3.094013823395212e-10 1.662016731535834e-11
6.027089341400364 2.1771533065178163e-18 3.483101045873139e-10 3.314541943841936e-10 1.685591020312029e-11
6.049734195844842 2.3315957406752193e-18 3.744199492107087e-10 3.5731371769603787e-10 1.710623151467078e-11
6.095279466722835 2.7790622386509494e-18 4.4963626219350824e-10 4.319054884959066e-10 1.773077369760167e-11
6.141167624020661 3.4630285697986732e-18 5.645162646584928e-10 5.459634701522754e-10 1.8552794506217526e-11
6.164241091010745 3.8987161480947365e-18 6.379265332125034e-10 6.188523350785284e-10 1.907419813397514e-11
6.187401249150058 4.388395214637567e-18 7.207480009587277e-10 7.011394712934616e-10 1.9608529665266197e-11
6.1990139391386085 4.625733551906705e-18 7.611542194074237e-10 7.412739978924717e-10 1.9880221514952054e-11
6.204828454712694 4.750204828155964e-18 7.823688466324255e-10 7.623515107537565e-10 2.0017335878668672e-11
6.210648424152782 4.839686452614325e-18 7.978543261922261e-10 7.777213682041678e-10 2.0132957988058427e-11
6.233982942956859 5.137904228316454e-18 8.501998957172039e-10 8.296688952009809e-10 2.0531000516223288e-11
6.239830258556775 5.172632195892796e-18 8.567493970880614e-10 8.361669976465986e-10 2.0582399441462975e-11
6.245683058788269 5.170148152071528e-18 8.571411848464223e-10 8.36507343949537e-10 2.0633840896885266e-11
6.257405133728602 5.149319171739462e-18 8.5529024527832e-10 8.345686014284072e-10 2.0721643849912753e-11
6.269149208991335 5.074723219296357e-18 8.444820052774998e-10 8.237389422531406e-10 2.0743063024359146e-11
6.280915325867298 4.906404773916633e-18 8.180046000606382e-10 7.973220574105156e-10 2.068254265012281e-11
6.304513850009849 4.499215050282415e-18 7.529355240365243e-10 7.324479185906339e-10 2.048760544589051e-11
6.32820103803542 4.0054654750892824e-18 6.728258882158471e-10 6.526118152878939e-10 2.021407292795325e-11
6.3519772230701035 3.555595720411034e-18 5.995021431368908e-10 5.795363256935798e-10 1.996581744331115e-11
6.375842739491607 3.1763720724600832e-18 5.375741768699916e-10 5.178305598749067e-10 1.9743616995084962e-11
6.399797922933955 2.874724820628581e-18 4.883508780328721e-10 4.687365945834539e-10 1.9614283449418136e-11
6.42384311029221 2.622829216851996e-18 4.472335459104899e-10 4.2772994937548734e-10 1.950359653500268e-11
6.447978639727206 2.4389161004912004e-18 4.174359842601268e-10 3.979709772113218e-10 1.946500704880502e-11
6.472204850670314 2.2847526018755454e-18 3.925191667365281e-10 3.7307851209371154e-10 1.9440654642816613e-11
6.496522083828205 2.182822181264833e-18 3.764165504854193e-10 3.5694211673351943e-10 1.94744337518998e-11
