Dust emission spectrum from A.P. Jones, M. Kohler, N. Ysard, M. Bocchio, and L. Verstraete (2017), A&A, 602A, 46J 
inside the DustPedia framework.

lambda    nu*dP/dnu     j_nu    j_nu(carb.) j_nu(sil)
 (um)   (erg s-1 H-1) (Jy cm2 sr-1 H-1)
0.9927057738263894 5.442908932929749e-24 1.4342374189325472e-16 1.434237418163855e-16 7.686922986035078e-26
1.0001793341362166 5.5327772190816344e-24 1.4688941232404027e-16 1.4688941223145921e-16 9.258108029853755e-26
1.0077091589558085 5.622546377186075e-24 1.503964846598192e-16 1.5039648454845923e-16 1.1135993637858429e-25
1.0114953028030835 5.6673832081744615e-24 1.5216538965440212e-16 1.5216538953232877e-16 1.220732927322798e-25
1.0152956718711033 5.7121826044375874e-24 1.5394445490544282e-16 1.5394445477166902e-16 1.3377377481354317e-25
1.0229392996569957 5.801608374864566e-24 1.5753160804434055e-16 1.5753160788384882e-16 1.6049170715605749e-25
1.0267826658714554 5.846126609483829e-24 1.5933683196207656e-16 1.593368317863667e-16 1.7570993494555577e-25
1.0306404723013447 5.890588533172454e-24 1.6115185667366838e-16 1.6115185648135994e-16 1.923084573872473e-25
1.03451277320114 5.934990060237992e-24 1.6297661236015868e-16 1.6297661214975235e-16 2.104063018481343e-25
1.0383996230291617 5.9793271299779134e-24 1.6481102836358738e-16 1.6481102813345516e-16 2.3013218700419107e-25
1.0403485208654093 6.001470231419e-24 1.6573183667918788e-16 1.6573183643853918e-16 2.406487001533883e-25
1.0423010764483396 6.023595707509636e-24 1.6665503320756806e-16 1.6665503295594278e-16 2.5162526163237693e-25
1.0462171883269815 6.067791784583993e-24 1.6850855461795002e-16 1.6850855434291418e-16 2.7503589556116493e-25
1.0471985131304309 6.078829008539962e-24 1.6897341339013735e-16 1.6897341310893045e-16 2.812069304776278e-25
1.048180758391296 6.089861390350796e-24 1.6943886123683335e-16 1.694388609493228e-16 2.87510563206266e-25
1.0501480137395462 6.111911380381966e-24 1.703715195435572e-16 1.7037151924303071e-16 3.005265261384995e-25
1.0521189612883777 6.133941261489086e-24 1.7130652028872933e-16 1.713065199746232e-16 3.141061231297178e-25
1.0531058218030118 6.144931708470936e-24 1.7177442657343666e-16 1.7177442625232174e-16 3.2111495945332296e-25
1.0540936079674168 6.1558619053278366e-24 1.7224137410951035e-16 1.7224137378123538e-16 3.2827502683182355e-25
1.058054026499678 6.199527089381207e-24 1.7411486054942175e-16 1.7411486019094698e-16 3.584748082235193e-25
1.0590464539527713 6.2104291823288336e-24 1.7458465029354707e-16 1.7458464992711645e-16 3.6643060353287505e-25
1.06003981227728 6.2213254735851984e-24 1.7505500490616447e-16 1.7505500453160914e-16 3.7455534305324703e-25
1.0620293250338977 6.243100411073361e-24 1.7599740394567207e-16 1.7599740355434672e-16 3.913253716022136e-25
1.0660195594769086 6.286578033240149e-24 1.778889275999801e-16 1.7788892717293274e-16 4.270473586990061e-25
1.070024785945596 6.329956150638241e-24 1.797893541640635e-16 1.7978935369818478e-16 4.658787020112387e-25
1.0740450607676866 6.3732309906299176e-24 1.8169860566084318e-16 1.8169860515276728e-16 5.080758890981989e-25
1.07808044048254 6.416398813850948e-24 1.8361660350568074e-16 1.8361660295176537e-16 5.539153121092426e-25
1.0861967418109137 6.5023228685102456e-24 1.874763368277539e-16 1.874763361700191e-16 6.577347783330941e-25
1.0902777775684922 6.544899530572063e-24 1.8941291049904566e-16 1.8941290978266478e-16 7.163807936220508e-25
1.0943741465085532 6.587351557091006e-24 1.9135776921691242e-16 1.913577684369084e-16 7.800039794723582e-25
1.1026131145906286 6.671867571965438e-24 1.952720134480906e-16 1.952720125242805e-16 9.238100739770966e-25
1.1109141095355224 6.755843028645626e-24 1.9921840834534335e-16 1.9921840725262005e-16 1.0927233123642752e-24
1.1192775983109025 6.839173386070829e-24 2.031939901955885e-16 2.0319398890472205e-16 1.2908664356853705e-24
1.1277040513999907 6.921477043608515e-24 2.0718740767170612e-16 2.0718740614871247e-16 1.5229937132058298e-24
1.1361939428280308 7.003149217917449e-24 2.112103920972664e-16 2.1121039030268678e-16 1.7945797130320368e-24
1.1447477501889525 7.084164784383892e-24 2.15262255494452e-16 2.1526225338253154e-16 2.1119205224573657e-24
1.1533659546722406 7.164542434715697e-24 2.1934362671997154e-16 2.1934362423772077e-16 2.482250785883622e-24
1.1707974979042381 7.323643858370239e-24 2.2760323760863823e-16 2.2760323419233004e-16 3.416308360223088e-24
1.1884924949847024 7.479879763918306e-24 2.3597201088271223e-16 2.359720062041649e-16 4.678547282140481e-24
1.2064549276569216 7.634463494664891e-24 2.444888498225404e-16 2.444888434466962e-16 6.375844184916862e-24
1.2246888378427687 7.78575858551905e-24 2.531023199647903e-16 2.5310231131806123e-16 8.64672911825503e-24
1.2431983285522175 7.933430992665792e-24 2.6180075765969177e-16 2.6180074598955027e-16 1.1670141450558663e-23
1.2619875648066055 8.077449681044223e-24 2.705819173179784e-16 2.7058190164194273e-16 1.5676035647537504e-23
1.3004222497298317 8.352266478203421e-24 2.883089779562041e-16 2.8830895006595586e-16 2.789024821599971e-23
1.3400274889804893 8.609325084843753e-24 3.062331822796261e-16 3.062331335602655e-16 4.871936058811113e-23
1.3808389325824078 8.847885005007898e-24 3.2430371672670794e-16 3.243036331308752e-16 8.359583278362377e-23
1.4228933163050095 9.069237057274191e-24 3.4254097245855617e-16 3.425408314924932e-16 1.409660629902289e-22
1.466228494730424 9.278587475409135e-24 3.6112117504646314e-16 3.6112094132024167e-16 2.3372622135979023e-22
1.5108834753276823 9.472404380717355e-24 3.7989242540472396e-16 3.79892044203762e-16 3.8120096207419e-22
1.5568984535646726 9.647876876764966e-24 3.98713988571615e-16 3.9871337635304117e-16 6.122185740017735e-22
1.6043148490894465 9.80553653098364e-24 4.17571066033751e-16 4.1757009605409086e-16 9.699796601961382e-22
1.6531753430134553 9.946060484897977e-24 4.3645497498364495e-16 4.364534606461101e-16 1.5143375348888179e-21
1.7035239163302658 1.0071066252412399e-23 4.554000995110287e-16 4.553977693228086e-16 2.3301882200370173e-21
1.755405889504358 1.0188687112497282e-23 4.747502583279595e-16 4.747467225472379e-16 3.5357807214988724e-21
1.8088679632656115 1.0297269439689866e-23 4.944226714174191e-16 4.944173789263372e-16 5.292491081839743e-21
1.8639582606462262 1.0395743117587305e-23 5.143528558009003e-16 5.143450379303244e-16 7.817870575925191e-21
1.9207263702978936 1.0485306183729748e-23 5.345841141021155e-16 5.345727133133852e-16 1.1400788730273288e-20
1.979223391128241 1.0568410335145161e-23 5.552312674324618e-16 5.552148476377218e-16 1.6419794740016897e-20
2.039501978296691 1.064789685800757e-23 5.764443669810836e-16 5.764210032129013e-16 2.3363768182227374e-20
2.1016163906111602 1.0731428967907048e-23 5.986602672450326e-16 5.986274092716682e-16 3.285797336441162e-20
2.1656225393682647 1.0823486177946007e-23 6.221847508397891e-16 6.221390617944097e-16 4.568904537950729e-20
2.231578038680979 1.0924407454922084e-23 6.471119230621922e-16 6.470490892696499e-16 6.283379254247888e-20
2.299542257339062 1.1036824818606153e-23 6.736820518641065e-16 6.735965612155742e-16 8.549064853218098e-20
2.369576372248914 1.1166410499307797e-23 7.02350236668093e-16 7.022351221354444e-16 1.151145326483771e-19
2.4417434235010123 1.1319820039838757e-23 7.336838887082569e-16 7.335304410099147e-16 1.5344769834234542e-19
2.5161083711144245 1.1508461340148288e-23 7.686277127665292e-16 7.684251538622538e-16 2.025589042754172e-19
2.5927381535095444 1.1750959988834796e-23 8.087260625101719e-16 8.084611871966061e-16 2.648753135657635e-19
2.6717017477616296 1.2069197446042102e-23 8.559251740155766e-16 8.555819763356013e-16 3.431976799753577e-19
2.753070231689431 1.2496042529208683e-23 9.131859442094134e-16 9.12745218681519e-16 4.407255278944326e-19
2.836916847834745 1.3106479150676477e-23 9.86965746841129e-16 9.864046531333979e-16 5.610937077311581e-19
2.9233170693905177 1.4065703609730213e-23 1.091457469335945e-15 1.0907492077501095e-15 7.082615858351803e-19
2.967498994190263 1.4839343690147827e-23 1.1688928631814467e-15 1.1681009318464708e-15 7.919313349759425e-19
3.0123486681368425 1.5733085386155322e-23 1.2580229706807903e-15 1.257138664559634e-15 8.843061211562632e-19
3.0578761833420214 1.765662150038534e-23 1.43316745255202e-15 1.4321810365890831e-15 9.864159629378199e-19
3.1040917844459814 2.0113955935753234e-23 1.6573013410882808e-15 1.6562031060468117e-15 1.0982350414693355e-18
3.127460860933648 2.2679138168868543e-23 1.8827292216303245e-15 1.881570837089762e-15 1.1583845405619923e-18
3.1510058709225794 2.6083673560829484e-23 2.1816616711875537e-15 2.1804403841533337e-15 1.2212870342208515e-18
3.162844764501044 2.924257822342838e-23 2.4550648601806294e-15 2.4538109417631737e-15 1.2539184174557324e-18
3.1747281389236908 3.290921113729782e-23 2.7732782548692442e-15 2.771990985955829e-15 1.287268913415343e-18
3.1986289994194426 4.311465732855631e-23 3.660650292882434e-15 3.659293951461581e-15 1.3563414208530918e-18
3.2227097969389145 6.713162064682034e-23 5.7427216184144054e-15 5.741291868668451e-15 1.4297497459518408e-18
3.2348180950136065 8.988865033105734e-23 7.718344455887853e-15 7.71687547478711e-15 1.4689811007429892e-18
3.240889293275058 1.0690079473147562e-22 9.196330337855626e-15 9.194840661598828e-15 1.4896762567968975e-18
3.2469718861334385 1.265840850040186e-22 1.0910058218123248e-14 1.0908547126842127e-14 1.51109128111823e-18
3.2714166318528037 2.3147534615094527e-22 2.0100646807624913e-14 2.0099047040375475e-14 1.5997672494332933e-18
3.2744851364798273 2.3803561289118873e-22 2.0689709548529836e-14 2.0688099281663442e-14 1.6102668663998319e-18
3.2775565192852394 2.4478354121209254e-22 2.1296186227786392e-14 2.1294565404119998e-14 1.6208236663913814e-18
3.283707930232385 2.383091569035704e-22 2.0771826434154388e-14 2.0770186632370952e-14 1.6398017834343944e-18
3.2898708863219004 2.1775133841365497e-22 1.9015560020162974e-14 1.9013902855582846e-14 1.6571645801295344e-18
3.29141343181113 2.129025638236175e-22 1.8600848755622923e-14 1.859918722866563e-14 1.6615269572880004e-18
3.292184975758714 2.105199387412034e-22 1.839699526838753e-14 1.8395331556983352e-14 1.6637114041781525e-18
3.295272960557952 1.9548953247832495e-22 1.7099536390593903e-14 1.7097864164857714e-14 1.6722257361907381e-18
3.3076538914384823 1.4339244349519918e-22 1.258971090941684e-14 1.2588004437759472e-14 1.7064716573738585e-18
3.310756385682612 1.327819471753575e-22 1.1669055125259947e-14 1.1667340011575073e-14 1.7151136848704903e-18
3.313861789986515 1.229892129513913e-22 1.081859459715309e-14 1.0816870809101252e-14 1.7237880518340952e-18
3.3200813396944477 1.092608940611632e-22 9.629038135993027e-15 9.627295731981272e-15 1.7424040117578567e-18
3.345076488085796 8.481383701351123e-23 7.530818782572617e-15 7.528993519898723e-15 1.825262673895035e-18
3.3482140837626964 8.573891980119454e-23 7.62009980473979e-15 7.618263321038977e-15 1.8364837008121067e-18
3.3513546224236106 8.667411638224318e-23 7.710441400718055e-15 7.708593640099373e-15 1.8477606186819256e-18
3.3576445397418455 9.347675176043838e-23 8.331203885802766e-15 8.329332563500866e-15 1.8713223018998316e-18
3.3702598118196083 1.185309340182151e-22 1.0603873091820363e-14 1.060195233545342e-14 1.9207563669388166e-18
3.382922481734668 1.242661401697496e-22 1.115871763638411e-14 1.1156748649032295e-14 1.9689873518155693e-18
3.389271646505754 1.2723650143385227e-22 1.1446890555413324e-14 1.144489708487416e-14 1.993470539164145e-18
3.395632727569191 1.304415461728149e-22 1.175725890356538e-14 1.1755240199707084e-14 2.0187038582976693e-18
3.421196662673239 1.4584031371055392e-22 1.324417963515954e-14 1.3242056267980621e-14 2.123367178917435e-18
3.4276182099114902 1.4277427426164366e-22 1.299008030092506e-14 1.298793337771166e-14 2.146923213408846e-18
3.4340518103208963 1.2927821614784397e-22 1.1784241308275024e-14 1.1782072008748818e-14 2.1692995262083763e-18
3.4469541582030403 1.1004989306047895e-22 1.0069190689989742e-14 1.0066978244635291e-14 2.212445354452102e-18
3.472904465399547 1.046886230811352e-22 9.650765377336665e-15 9.648453812458754e-15 2.3115648779114423e-18
3.4990501388274233 9.64781626219186e-23 8.960837932419147e-15 8.958424471428039e-15 2.413460991108393e-18
3.5253949054701885 6.7186927252545e-23 6.287268175311143e-15 6.284754989213158e-15 2.513186097987148e-18
3.5519380250092896 3.962491960239014e-23 3.73596850702984e-15 3.7333544863279036e-15 2.6140207019362015e-18
3.578680990867387 2.871792536886636e-23 2.72800701038196e-15 2.7252823575679374e-15 2.724652814021898e-18
3.605625307711299 2.4331673549921746e-23 2.328745386173181e-15 2.3259038329131003e-15 2.841553260081357e-18
3.660119384959845 2.1184515604222614e-23 2.058179378014607e-15 2.0550905350281993e-15 3.088842986407382e-18
3.715437065384467 1.8973354725104944e-23 1.8712140457339632e-15 1.867862017097224e-15 3.3520286367401454e-18
3.8285932144167436 1.797016310721183e-23 1.8262518856533418e-15 1.8223253707466614e-15 3.9265149066809576e-18
3.94519561050918 1.790531646587705e-23 1.875080751449118e-15 1.870514184262901e-15 4.566567186216931e-18
4.06534921144712 1.82261202694411e-23 1.9668059887257175e-15 1.9615308747023742e-15 5.275114023343143e-18
4.189162171576248 1.8770443165268667e-23 2.087233961321374e-15 2.0811766648942365e-15 6.057296427137169e-18
4.316745939156006 1.9477363106242176e-23 2.231804160428146e-15 2.2248893841231545e-15 6.914776304990892e-18
4.448215356677963 2.0326110902063625e-23 2.3999905350136837e-15 2.3921494053266138e-15 7.84112968707015e-18
4.58368876423945 2.131865834649486e-23 2.5938474086026566e-15 2.585005277749755e-15 8.84213085290212e-18
4.723288106065518 2.2473960926972707e-23 2.817691822225058e-15 2.807763094740942e-15 9.92872748411659e-18
4.867139040275056 2.3830030751736774e-23 3.078702956949676e-15 3.0676212588369415e-15 1.1081698112735651e-17
4.940699165968905 2.4632347560784592e-23 3.2304546435649234e-15 3.218766814931538e-15 1.1687828633384774e-17
5.015371051989984 2.5458906236841006e-23 3.3893174186668354e-15 3.3770044018031103e-15 1.2313016863725647e-17
5.091171501069577 2.6452461493788878e-23 3.574812359876226e-15 3.561842821029052e-15 1.2969538847174326e-17
5.129500256944802 2.696051135318261e-23 3.670900508184008e-15 3.657595465411032e-15 1.3305042772974725e-17
5.168117569889187 2.7488308263019464e-23 3.770941807024432e-15 3.757293864743743e-15 1.3647942280688795e-17
5.20702561229733 2.8129838167470665e-23 3.888001113100295e-15 3.873982641010996e-15 1.4018472089297567e-17
5.246226572918644 2.878597094063255e-23 4.008642795115428e-15 3.994247680941588e-15 1.4395114173841984e-17
5.265937586045735 2.9119655886812974e-23 4.0703464772459046e-15 4.0557607503495775e-15 1.45857268963267e-17
5.285722656980489 2.9457165114742036e-23 4.1329938020293504e-15 4.1182159350714164e-15 1.4777866957934323e-17
5.305582063971359 2.979855922455843e-23 4.196601539739085e-15 4.181630005851786e-15 1.4971533887300148e-17
5.3255160863122235 3.016433874801162e-23 4.2640760643703355e-15 4.248908154622108e-15 1.5167909748227667e-17
5.365609099470188 3.106982496764236e-23 4.425142591617993e-15 4.409568105407394e-15 1.5574486210599568e-17
5.406003951863644 3.200708308593034e-23 4.592951813730964e-15 4.576964010558713e-15 1.5987803172251724e-17
5.446702915881641 3.29776387646115e-23 4.767851027637786e-15 4.751443158580269e-15 1.6407869057518614e-17
5.487708281020852 3.402317648689754e-23 4.956045762235384e-15 4.939209661110462e-15 1.6836101124921255e-17
5.529022354014368 3.5470068064722255e-23 5.205707961914819e-15 5.188424393991456e-15 1.7283567923361593e-17
5.570647458961463 3.699758531556832e-23 5.470770396255754e-15 5.453031845274503e-15 1.773855098125252e-17
5.612585937458331 3.861150693120789e-23 5.752401468170236e-15 5.734200395586216e-15 1.8201072584018466e-17
5.654840148729818 4.0380855266316925e-23 6.061293010953546e-15 6.042620058357624e-15 1.8672952595921602e-17
5.67608639626678 4.158479953696241e-23 6.265461167015588e-15 6.2465415739721975e-15 1.8919593043389646e-17
5.686739436050992 4.220463873584577e-23 6.370785012705766e-15 6.351741302740601e-15 1.9043709965166326e-17
5.6974124697621304 4.2836767494714937e-23 6.478340727244295e-15 6.4591723683600244e-15 1.9168358884273933e-17
5.718818669136295 4.413907188249374e-23 6.700372635279566e-15 6.6809533799891106e-15 1.9419255290453884e-17
5.740305295436557 4.5573356717131445e-23 6.944091609997708e-15 6.924417771490679e-15 1.9673838507027562e-17
5.7835210386641895 4.9292211326108696e-23 7.567284369213898e-15 7.547082720680369e-15 2.020164853352558e-17
5.827062130521658 5.3564670035656e-23 8.28509544216257e-15 8.264352830535021e-15 2.074261162755195e-17
5.8489554468988025 5.656483895926782e-23 8.782017563004952e-15 8.760984397703506e-15 2.1033165301446077e-17
5.870931020387893 5.977854677263709e-23 9.315834485848921e-15 9.294507908206911e-15 2.13265776420074e-17
5.892989160043636 6.322286935510854e-23 9.889612554746457e-15 9.867989692101843e-15 2.162286264461204e-17
5.915130176081913 6.713734800219255e-23 1.054139098764562e-14 1.0519461331658326e-14 2.1929655987293834e-17
5.95966208400165 7.808729739761874e-23 1.2352972110644176e-14 1.2330353493108209e-14 2.2618617535965276e-17
6.004529249263818 9.385571972680815e-23 1.4959226644964813e-14 1.493583766835605e-14 2.33889766087639e-17
6.027089341400364 1.0481693166761603e-22 1.6769051734836992e-14 1.6745222763440623e-14 2.3828971396362458e-17
6.049734195844842 1.1775562470275253e-22 1.890981967899444e-14 1.8885525478838106e-14 2.4294200156330114e-17
6.095279466722835 1.551308325435117e-22 2.5099275117239488e-14 2.5073855480608118e-14 2.5419636631378505e-17
6.141167624020661 2.1260793454990403e-22 3.465770917848554e-14 3.4630851158232255e-14 2.6858020253274267e-17
6.164241091010745 2.4932828254423357e-22 4.079628289764007e-14 4.0768533056392086e-14 2.7749841247978598e-17
6.187401249150058 2.9110498996571165e-22 4.781094895169453e-14 4.778228012644606e-14 2.8668825248470035e-17
6.1990139391386085 3.115059362257862e-22 5.1257612456079284e-14 5.122847532032765e-14 2.913713575163126e-17
6.204828454712694 3.2224764406166826e-22 5.307487292340942e-14 5.3045498909736984e-14 2.937401367244948e-17
6.210648424152782 3.300919220449066e-22 5.441783690395273e-14 5.43882584003199e-14 2.95785036328156e-17
6.233982942956859 3.5673283159351783e-22 5.903072590340842e-14 5.900042298073814e-14 3.030292267027749e-17
6.239830258556775 3.6013390525907286e-22 5.964941919641456e-14 5.961900720329977e-14 3.041199311477863e-17
6.245683058788269 3.6042347631602147e-22 5.975337581229664e-14 5.972285444440326e-14 3.0521367893381546e-17
6.257405133728602 3.5967942466076665e-22 5.974193734737041e-14 5.971121948007061e-14 3.0717867299781104e-17
6.269149208991335 3.5442607019761636e-22 5.897985477217962e-14 5.894904042978108e-14 3.081434239856823e-17
6.280915325867298 3.4126904189987203e-22 5.689698648926133e-14 5.686619976293445e-14 3.078672632687622e-17
6.304513850009849 3.088270978668759e-22 5.1681657838177705e-14 5.165103902186185e-14 3.06188163158432e-17
6.32820103803542 2.686355124188125e-22 4.5124575002229394e-14 4.5094243974957326e-14 3.033102727205898e-17
6.3519772230701035 2.3177952254412618e-22 3.907989867992804e-14 3.90498174288494e-14 3.0081251078647766e-17
6.375842739491607 2.0075175345521004e-22 3.3975540697695847e-14 3.394567061467559e-14 2.987008302024894e-17
6.399797922933955 1.75908938128389e-22 2.988295915225898e-14 2.985315605441733e-14 2.980309784166094e-17
6.42384311029221 1.552362906376902e-22 2.6470223935973206e-14 2.64404591017016e-14 2.976483427160459e-17
6.447978639727206 1.401819698501398e-22 2.399303467148015e-14 2.3963194589377936e-14 2.984008210221698e-17
6.472204850670314 1.2763121658315544e-22 2.1926968697470566e-14 2.189703022230458e-14 2.993847516598605e-17
6.496522083828205 1.1948011973763416e-22 2.060373717531348e-14 2.0573607333903416e-14 3.0129841410066836e-17
6.520930681187647 1.126093513257658e-22 1.949186852794475e-14 1.9461532042210825e-14 3.0336485733928097e-17
