Dust emission spectrum from A.P. Jones, M. Kohler, N. Ysard, M. Bocchio, and L. Verstraete (2017), A&A, 602A, 46J 
inside the DustPedia framework.

lambda    nu*dP/dnu     j_nu    j_nu(carb.) j_nu(sil)
 (um)   (erg s-1 H-1) (Jy cm2 sr-1 H-1)
0.9927057738263894 1.9557371718213923e-23 5.153478531403086e-16 5.153478486721049e-16 4.46820354565059e-24
1.0001793341362166 1.9883085926726677e-23 5.278750058637027e-16 5.278750004837412e-16 5.379961357420996e-24
1.0077091589558085 2.0208888679437403e-23 5.405639388945526e-16 5.405639324252682e-16 6.469284304634133e-24
1.0114953028030835 2.0371790702619114e-23 5.469687431318899e-16 5.46968736041324e-16 7.090565809919588e-24
1.0152956718711033 2.053467595078709e-23 5.534135924590371e-16 5.534135846900793e-16 7.768957830035732e-24
1.0229392996569957 2.0860185815783603e-23 5.66418552121048e-16 5.66418542803462e-16 9.31758595602441e-24
1.0267826658714554 2.1022424063640342e-23 5.729685096162374e-16 5.729684994168334e-16 1.0199403981559674e-23
1.0306404723013447 2.1184586523489893e-23 5.795576166793897e-16 5.795576055183864e-16 1.1161003387932182e-23
1.03451277320114 2.1346660769081487e-23 5.861857260139864e-16 5.861857138047437e-16 1.2209242666675752e-23
1.0383996230291617 2.1508634477261217e-23 5.928526889123434e-16 5.92852675560807e-16 1.3351536620567953e-23
1.0403485208654093 2.158957980783673e-23 5.962006936154843e-16 5.962006796550504e-16 1.396043367128572e-23
1.0423010764483396 2.1670495431260323e-23 5.995583553555353e-16 5.995583407596367e-16 1.4595898576469445e-23
1.0462171883269815 2.1832231523937345e-23 6.063025741143412e-16 6.063025581633556e-16 1.5950985561257505e-23
1.0471985131304309 2.1872644629416604e-23 6.079946347741857e-16 6.079946184660478e-16 1.6308137756305946e-23
1.048180758391296 2.1913048994561952e-23 6.096890930470975e-16 6.096890763741534e-16 1.6672944097590377e-23
1.0501480137395462 2.1993830760973548e-23 6.130851928511957e-16 6.130851754250491e-16 1.7426146630263663e-23
1.0521189612883777 2.207457534202737e-23 6.164908543281499e-16 6.164908361162714e-16 1.8211878398939693e-23
1.0531058218030118 2.2114873973714512e-23 6.181956083160262e-16 6.181955896986415e-16 1.8617384702062155e-23
1.0540936079674168 2.2154968624593457e-23 6.198973105537592e-16 6.198972915221406e-16 1.9031618577238168e-23
1.058054026499678 2.2315237076261004e-23 6.267275448018545e-16 6.267275240233243e-16 2.0778530312739374e-23
1.0590464539527713 2.2355275748343594e-23 6.284409473415564e-16 6.284409261028856e-16 2.1238670773713773e-23
1.06003981227728 2.2395302684677094e-23 6.3015668252475295e-16 6.30156660816197e-16 2.170855597194167e-23
1.0620293250338977 2.247532063527106e-23 6.335951409075965e-16 6.335951182292473e-16 2.2678349149182432e-23
1.0660195594769086 2.2635207872795214e-23 6.404999402224637e-16 6.404999154787044e-16 2.4743759249639152e-23
1.070024785945596 2.2794887490611298e-23 6.474417835842782e-16 6.474417565958435e-16 2.698843468676629e-23
1.0740450607676866 2.2954348323973173e-23 6.544205114252431e-16 6.544204819981315e-16 2.942711146042393e-23
1.07808044048254 2.3113579344430736e-23 6.614359638808479e-16 6.614359318051835e-16 3.207566433982465e-23
1.0861967418109137 2.3431039453393214e-23 6.755686442551519e-16 6.755686061830587e-16 3.807209321635359e-23
1.0902777775684922 2.3588635292166458e-23 6.826677849704478e-16 6.82667743512258e-16 4.145818977458314e-23
1.0943741465085532 2.374594789727723e-23 6.89802506847021e-16 6.898024617162467e-16 4.513077426412264e-23
1.1026131145906286 2.405968260823611e-23 7.041780453757201e-16 7.041779919469476e-16 5.342877261633359e-23
1.1109141095355224 2.4372163546364918e-23 7.186939674370434e-16 7.186939042663112e-16 6.317073204822535e-23
1.1192775983109025 2.4683038250784014e-23 7.333408219393839e-16 7.333407473465696e-16 7.459281431128902e-23
1.1277040513999907 2.4990968407513215e-23 7.480793372477493e-16 7.480792492805698e-16 8.796717941489142e-23
1.1361939428280308 2.5297380271739014e-23 7.629524146875934e-16 7.629523110805685e-16 1.0360702501977215e-22
1.1447477501889525 2.5602205026625452e-23 7.779588091755684e-16 7.779586873032594e-16 1.2187230887169397e-22
1.1533659546722406 2.5905523430977026e-23 7.931017944560727e-16 7.931016512796984e-16 1.4317637430869168e-22
1.1707974979042381 2.6508595914570255e-23 8.238306465052436e-16 8.2383044963903e-16 1.9686621331783446e-22
1.1884924949847024 2.7104806899254447e-23 8.550907221072998e-16 8.550904527656884e-16 2.6934161154334724e-22
1.2064549276569216 2.76985892309979e-23 8.870297470838755e-16 8.870293803940943e-16 3.666897811500806e-22
1.2246888378427687 2.828438560271185e-23 9.194792692570788e-16 9.194787724673933e-16 4.967896856140587e-22
1.2431983285522175 2.886114361235327e-23 9.52408771390893e-16 9.524081015869737e-16 6.698039190466961e-22
1.2619875648066055 2.9429030214140894e-23 9.858264346527674e-16 9.85825535879107e-16 8.987736603600758e-22
1.3004222497298317 3.0530979193522144e-23 1.0538882386305154e-15 1.0538866430176752e-15 1.5956128398528278e-21
1.3400274889804893 3.1588909807780224e-23 1.1236156469698688e-15 1.123612865929448e-15 2.7810404207924042e-21
1.3808389325824078 3.2602190664611027e-23 1.1949761553164195e-15 1.1949713943882937e-15 4.7609281262368665e-21
1.4228933163050095 3.357750464214809e-23 1.2682071292455526e-15 1.2681991199512907e-15 8.009294262278982e-21
1.466228494730424 3.4535669773641986e-23 1.3441228724444702e-15 1.3441096250173754e-15 1.32474270952375e-20
1.5108834753276823 3.54666731382808e-23 1.4223970956060159e-15 1.4223755432717845e-15 2.1552334231244853e-20
1.5568984535646726 3.636299377448192e-23 1.5027590494179243e-15 1.502724524153476e-15 3.4525264448759603e-20
1.6043148490894465 3.722908705347574e-23 1.5854093775757632e-15 1.5853548190532002e-15 5.455852256299988e-20
1.6531753430134553 3.807008984387421e-23 1.6705991418072173e-15 1.6705141914702177e-15 8.495033699983149e-20
1.7035239163302658 3.8894301099971634e-23 1.7587480955252575e-15 1.7586177346037404e-15 1.3036092151715669e-19
1.755405889504358 3.9733603442150864e-23 1.8514199415667705e-15 1.851222687255182e-15 1.9725431158798405e-19
1.8088679632656115 4.058470077890033e-23 1.9486715672834584e-15 1.948377155053614e-15 2.944122298441676e-19
1.8639582606462262 4.1445800310234643e-23 2.050624520959744e-15 2.050190902708712e-15 4.336182510321049e-19
1.9207263702978936 4.232329116992156e-23 2.157815777575157e-15 2.1571853359551984e-15 6.304416199587638e-19
1.979223391128241 4.3227943608251795e-23 2.2710611300066407e-15 2.270155950094316e-15 9.051799123247814e-19
2.039501978296691 4.4171392659315145e-23 2.3913032610776355e-15 2.3900193586008178e-15 1.2839024768174436e-18
2.1016163906111602 4.5183155771248146e-23 2.520573931941591e-15 2.5187741700413246e-15 1.7997619002657416e-18
2.1656225393682647 4.6280677347508305e-23 2.6604304039145207e-15 2.6579361945986606e-15 2.4942093158606175e-18
2.231578038680979 4.746506373618672e-23 2.8116132430372065e-15 2.8081948641222833e-15 3.4183789149223807e-18
2.299542257339062 4.874618414939028e-23 2.975441750506478e-15 2.9708071822957067e-15 4.634568210770227e-18
2.369576372248914 5.014398819970908e-23 3.1539805904261655e-15 3.147762743485529e-15 6.217846940637088e-18
2.4417434235010123 5.168165434350819e-23 3.3496996418823973e-15 3.3414422550524483e-15 8.257386829949554e-18
2.5161083711144245 5.339896305619461e-23 3.566412713644167e-15 3.555554542261976e-15 1.085817138219155e-17
2.5927381535095444 5.536003712576722e-23 3.8099955142114365e-15 3.795853282785243e-15 1.4142231426194874e-17
2.6717017477616296 5.763614242034424e-23 4.087448685073704e-15 4.06919975983582e-15 1.824892523788327e-17
2.753070231689431 6.033303318516105e-23 4.40901811492939e-15 4.3856824554873696e-15 2.3335659442019785e-17
2.836916847834745 6.369627165001741e-23 4.79656188342619e-15 4.766982735561051e-15 2.95791478651412e-17
2.9233170693905177 6.826432020828847e-23 5.297111630372698e-15 5.259943249597748e-15 3.716838077494984e-17
2.967498994190263 7.152760875644195e-23 5.6342189480623096e-15 5.592761258191267e-15 4.145768987104089e-17
3.0123486681368425 7.519458693786656e-23 6.012585282345962e-15 5.9664047567066075e-15 4.618052563935606e-17
3.0578761833420214 8.22627480579129e-23 6.677171681542514e-15 6.62578389597161e-15 5.1387785570903826e-17
3.1040917844459814 9.105090090238806e-23 7.502193037253116e-15 7.44512154809741e-15 5.707148915570639e-17
3.127460860933648 9.982750774406192e-23 8.287271083795757e-15 8.227149637517753e-15 6.012144627800613e-17
3.1510058709225794 1.11321960121574e-22 9.311067821498375e-15 9.247762270696942e-15 6.330555080143174e-17
3.162844764501044 1.2185985993107162e-22 1.02307620654193e-14 1.0165806825822619e-14 6.495523959668101e-17
3.1747281389236908 1.340162458163579e-22 1.129362654033628e-14 1.1226986731228094e-14 6.663980910818192e-17
3.1986289994194426 1.676020728771279e-22 1.4230255212048217e-14 1.416013100651651e-14 7.012420553170699e-17
3.2227097969389145 2.461494111877136e-22 2.1056657523947513e-14 2.0982835951119976e-14 7.3821572827534e-17
3.2348180950136065 3.203530426481224e-22 2.750731178567532e-14 2.743151575955256e-14 7.57960261227579e-17
3.240889293275058 3.757951468782252e-22 3.232844356991085e-14 3.2251606044948944e-14 7.683752496190233e-17
3.2469718861334385 4.399591359017681e-22 3.7919299145157984e-14 3.784138394404013e-14 7.791520111785051e-17
3.2714166318528037 7.808322681666252e-22 6.780520646971671e-14 6.772283350389388e-14 8.237296582284453e-17
3.2744851364798273 8.021728196385741e-22 6.972369572965551e-14 6.964079621949092e-14 8.289951016460567e-17
3.2775565192852394 8.241158630345357e-22 7.169814116403249e-14 7.161471236471155e-14 8.342879932094917e-17
3.283707930232385 8.03180212617982e-22 7.000788466806073e-14 6.992350688637699e-14 8.437778168372636e-17
3.2898708863219004 7.365047864167795e-22 6.431671590757642e-14 6.423147224549607e-14 8.524366208037048e-17
3.29141343181113 7.207728041351921e-22 6.2972402380237e-14 6.288694123149162e-14 8.54611487453707e-17
3.292184975758714 7.130414318995777e-22 6.231153175921648e-14 6.222596171440744e-14 8.557004480905199e-17
3.295272960557952 6.643567430988655e-22 5.81115119614656e-14 5.802551790687232e-14 8.59940545932789e-17
3.3076538914384823 4.953799838185295e-22 4.3493859471023576e-14 4.340616122889172e-14 8.769824213185536e-17
3.310756385682612 4.609017540619003e-22 4.0504662643442934e-14 4.041653460680088e-14 8.812803664205911e-17
3.313861789986515 4.290562899765989e-22 3.7741407959492716e-14 3.7652848625157185e-14 8.855933433552688e-17
3.3200813396944477 3.84464477691192e-22 3.388241648060076e-14 3.379293050663061e-14 8.948597397015107e-17
3.345076488085796 3.0550085958725427e-22 2.7126135221370395e-14 2.7032522416094813e-14 9.361280527557655e-17
3.3482140837626964 3.0857653351548153e-22 2.7424931270895738e-14 2.7330759524066087e-14 9.417174682965999e-17
3.3513546224236106 3.116845449956844e-22 2.7727140696770236e-14 2.763240736274494e-14 9.473333402529549e-17
3.3576445397418455 3.3395198373338986e-22 2.976378631214552e-14 2.9667879228669886e-14 9.590708347563294e-17
3.3702598118196083 4.1558704080286825e-22 3.7178752329763734e-14 3.708038299679489e-14 9.836933296884625e-17
3.382922481734668 4.345548967381982e-22 3.902169475599458e-14 3.892092758130541e-14 1.0076717468918035e-16
3.389271646505754 4.443686912016666e-22 3.997783432517734e-14 3.987585086406734e-14 1.0198346111001051e-16
3.395632727569191 4.54996408037465e-22 4.10107877930355e-14 4.0907550842252575e-14 1.0323695078290731e-16
3.421196662673239 5.061188993417833e-22 4.596211739461397e-14 4.585368644532218e-14 1.084309492917905e-16
3.4276182099114902 4.962844382801968e-22 4.515361565449171e-14 4.504402057529892e-14 1.0959507919277999e-16
3.4340518103208963 4.524460422355227e-22 4.124231830813603e-14 4.1131619735886216e-14 1.1069857224982276e-16
3.4469541582030403 3.8993401906887466e-22 3.567763570983981e-14 3.556481417104347e-14 1.1282153879633704e-16
3.472904465399547 3.7278870225522855e-22 3.4365685543487945e-14 3.4247980693295976e-14 1.177048501919708e-16
3.4990501388274233 3.464301174519573e-22 3.2176236083196935e-14 3.205352266212704e-14 1.2271342106989746e-16
3.5253949054701885 2.5167724528731655e-22 2.3551640169479296e-14 2.3424042811602803e-14 1.2759735787649674e-16
3.5519380250092896 1.6229297884027954e-22 1.5301518941700812e-14 1.5168998037715882e-14 1.3252090398493283e-16
3.578680990867387 1.2720257606895273e-22 1.2083377012705348e-14 1.1945457311137684e-14 1.3791970156766656e-16
3.605625307711299 1.134005276414678e-22 1.0853382320490718e-14 1.0709767550871572e-14 1.436147696191491e-16
3.660119384959845 1.0414839880802791e-22 1.0118526695847489e-14 9.962906584144639e-15 1.556201117028451e-16
3.715437065384467 9.7904978196279e-23 9.655707859915186e-15 9.487372625250646e-15 1.6833523466454135e-16
3.8285932144167436 9.663053421401874e-23 9.820261188904815e-15 9.62439033120446e-15 1.958708577003542e-16
3.94519561050918 9.844483535745247e-23 1.0309341150720338e-14 1.0083128256079203e-14 2.2621289464113165e-16
4.06534921144712 1.0154270711211863e-22 1.095761475876954e-14 1.0698208867488082e-14 2.594058912814574e-16
4.189162171576248 1.0539251757416154e-22 1.1719427187365561e-14 1.1423835503708715e-14 2.95591683656844e-16
4.316745939156006 1.0978729299172416e-22 1.2579923469340043e-14 1.2245193741575932e-14 3.347297277641083e-16
4.448215356677963 1.1464819491443946e-22 1.3537000952952754e-14 1.3160613070434674e-14 3.7638788251807993e-16
4.58368876423945 1.1997408839877802e-22 1.4597282494740197e-14 1.4176577477904169e-14 4.207050168360308e-16
4.723288106065518 1.258199524173596e-22 1.5774782743065617e-14 1.5306739634919783e-14 4.680431081458337e-16
4.867139040275056 1.3229063220231677e-22 1.7091189045500128e-14 1.6573853318538745e-14 5.173357269613835e-16
4.940699165968905 1.3591995226567545e-22 1.782547277989887e-14 1.7282588793221108e-14 5.428839866777608e-16
5.015371051989984 1.3961212274049991e-22 1.8586415105951657e-14 1.801744024318686e-14 5.68974862764794e-16
5.091171501069577 1.4384393776359757e-22 1.943921501336708e-14 1.88430727637303e-14 5.96142249636773e-16
5.129500256944802 1.4598767781387907e-22 1.9877450900511565e-14 1.9267535162431593e-14 6.099157380799698e-16
5.168117569889187 1.481913436743896e-22 2.0329404339978016e-14 1.9705470596686024e-14 6.239337432919921e-16
5.20702561229733 1.5077375475007187e-22 2.083938495502905e-14 2.0200234075751013e-14 6.391508792780353e-16
5.246226572918644 1.533955051204578e-22 2.136137035892883e-14 2.0706830891543547e-14 6.545394673852852e-16
5.265937586045735 1.5472149364272266e-22 2.1626975574531992e-14 2.096467865101323e-14 6.622969235187569e-16
5.285722656980489 1.5605775824678193e-22 2.1895716885185162e-14 2.1225621017184897e-14 6.700958680002621e-16
5.305582063971359 1.574044544512136e-22 2.2167641426346254e-14 2.1489705599919228e-14 6.779358264270268e-16
5.3255160863122235 1.588302490776224e-22 2.2452481688646745e-14 2.1766610334858646e-14 6.858713537880972e-16
5.365609099470188 1.6225407137870473e-22 2.3109155029649826e-14 2.240686408566433e-14 7.022909439855015e-16
5.406003951863644 1.6576822794045895e-22 2.3787406091771593e-14 2.3068512298537126e-14 7.188937932344615e-16
5.446702915881641 1.6937706291978756e-22 2.4488248211602757e-14 2.3752571924980247e-14 7.356762866225072e-16
5.487708281020852 1.7321881473032926e-22 2.5232222894128903e-14 2.4479524093785474e-14 7.526988003434365e-16
5.529022354014368 1.7837478197196262e-22 2.6178890354027755e-14 2.5408431852892386e-14 7.704585011353688e-16
5.570647458961463 1.8376862335860293e-22 2.7173555675480048e-14 2.6385138909939606e-14 7.884167655404422e-16
5.612585937458331 1.8941747109824684e-22 2.821970509423373e-14 2.741313502739036e-14 8.065700668433717e-16
5.654840148729818 1.9554756930570314e-22 2.93523033953738e-14 2.8527308326432723e-14 8.249950689410831e-16
5.67608639626678 1.9965279354705107e-22 3.008110749081184e-14 2.924647912162251e-14 8.34628369189328e-16
5.686739436050992 2.0175912167072627e-22 3.045551453624553e-14 2.961604870616952e-14 8.394658300760026e-16
5.6974124697621304 2.0390239750496297e-22 3.083680873684346e-14 2.9992491640523595e-14 8.443170963198749e-16
5.718818669136295 2.0830333500019964e-22 3.162073659791589e-14 3.0766675761297156e-14 8.540608366187367e-16
5.740305295436557 2.13124700943389e-22 3.247418128294087e-14 3.1610255249523976e-14 8.639260334168975e-16
5.7835210386641895 2.255096084419449e-22 3.461997928598495e-14 3.373563659302601e-14 8.843426929589412e-16
5.827062130521658 2.3961460093223436e-22 3.706229939879709e-14 3.6157134702933934e-14 9.05164695863155e-16
5.8489554468988025 2.4946334321257304e-22 3.8730623152597175e-14 3.781424344130722e-14 9.163797112899524e-16
5.870931020387893 2.5996575142519794e-22 4.051282680854723e-14 3.958515418980434e-14 9.27672618742889e-16
5.892989160043636 2.711737702400652e-22 4.24182507064176e-14 4.147920753565933e-14 9.390431707582655e-16
5.915130176081913 2.8387065432567005e-22 4.4571190942304714e-14 4.362036847393942e-14 9.508224683652908e-16
5.95966208400165 3.192671487599215e-22 5.0506270749696404e-14 4.952877658624111e-14 9.774941634552915e-16
6.004529249263818 3.6998039580653803e-22 5.896945451139011e-14 5.796203278706242e-14 1.0074217243276891e-15
6.027089341400364 4.05150092238603e-22 6.481760865379504e-14 6.379297976190468e-14 1.0246288918903745e-15
6.049734195844842 4.465421295892959e-22 7.170809182935254e-14 7.066525119948753e-14 1.042840629865026e-15
6.095279466722835 5.658872781454253e-22 9.155730196660962e-14 9.046999109155332e-14 1.087310875056326e-15
6.141167624020661 7.488427055279777e-22 1.2207057447579464e-13 1.20925909609952e-13 1.1446648658426372e-15
6.164241091010745 8.656466659370498e-22 1.4164123665634085e-13 1.4046075110925707e-13 1.1804855470837853e-15
6.187401249150058 9.981351285474973e-22 1.6393325199783916e-13 1.627159322284158e-13 1.2173197694233207e-15
6.1990139391386085 1.0627828409225974e-21 1.7487856457893082e-13 1.7364249164525706e-13 1.2360729336737282e-15
6.204828454712694 1.0967873974041945e-21 1.806432190085604e-13 1.7939766856898718e-13 1.245550439573231e-15
6.210648424152782 1.1216000913914488e-21 1.8490319443956263e-13 1.8364952758443942e-13 1.2536668551231663e-15
6.233982942956859 1.2056944898354962e-21 1.9951351445506345e-13 1.9823137203955418e-13 1.2821424155092347e-15
6.239830258556775 1.2163388881885512e-21 2.0146369771617568e-13 2.0017747062633726e-13 1.2862270898383966e-15
6.245683058788269 1.217115372897325e-21 2.0178139622594996e-13 2.0049107590506544e-13 1.2903203208844976e-15
6.257405133728602 1.21446767481695e-21 2.017203286169374e-13 2.0042276522318124e-13 1.2975633937561767e-15
6.269149208991335 1.1975205910595543e-21 1.9927876780623522e-13 1.9797816461402599e-13 1.3006031922092396e-15
6.280915325867298 1.1555262495387182e-21 1.9265140793896288e-13 1.9135296913737138e-13 1.2984388015914542e-15
6.304513850009849 1.0521743778184595e-21 1.760794844626995e-13 1.747900911560541e-13 1.2893933066453467e-15
6.32820103803542 9.24500250630073e-22 1.5529473569412977e-13 1.5401940668226775e-13 1.2753290118620124e-15
6.3519772230701035 8.075547824145238e-22 1.3616025578464423e-13 1.3489739971043854e-13 1.2628560742056353e-15
6.375842739491607 7.090483350521508e-22 1.2000044905995124e-13 1.187484405043399e-13 1.252008555611358e-15
6.399797922933955 6.304053836025342e-22 1.0709164939537806e-13 1.058445071458234e-13 1.2471422495546507e-15
6.42384311029221 5.649208850793767e-22 9.63278771525134e-14 9.508441204975648e-14 1.2434651027569312e-15
6.447978639727206 5.173428700135427e-22 8.854651871811743e-14 8.730204870614661e-14 1.244470011970807e-15
6.472204850670314 4.776674302200228e-22 8.206298639652679e-14 8.081657440287144e-14 1.246411993655349e-15
6.496522083828205 4.519754625545303e-22 7.79408629704532e-14 7.668869895580659e-14 1.2521640146466267e-15
