Dust emission spectrum from A.P. Jones, M. Kohler, N. Ysard, M. Bocchio, and L. Verstraete (2017), A&A, 602A, 46J 
inside the DustPedia framework.

lambda    nu*dP/dnu     j_nu    j_nu(carb.) j_nu(sil)
 (um)   (erg s-1 H-1) (Jy cm2 sr-1 H-1)
0.9927057738263894 3.757333998079019e-21 9.900788497248801e-14 9.9007880177553e-14 4.79493499883285e-21
1.0001793341362166 3.820507375034996e-21 1.0143045000313651e-13 1.0143044423288042e-13 5.770256053302369e-21
1.0077091589558085 3.883931844760287e-21 1.0389059634624378e-13 1.0389058941153128e-13 6.934712491404376e-21
1.0114953028030835 3.915735339049565e-21 1.0513483414895407e-13 1.0513482655045654e-13 7.598497524242664e-21
1.0152956718711033 3.947598175899283e-21 1.0638855433340438e-13 1.0638854601036525e-13 8.323039096102255e-21
1.0229392996569957 4.011466479334035e-21 1.0892371981592292e-13 1.0892370983982388e-13 9.976099007450569e-21
1.0267826658714554 4.043399405051812e-21 1.1020330119316123e-13 1.1020329027628764e-13 1.0916873636503922e-20
1.0306404723013447 4.0753858563593584e-21 1.1149242452013772e-13 1.1149241257775932e-13 1.1942378374782777e-20
1.03451277320114 4.1074248534977974e-21 1.1279112203267085e-13 1.1279110897281415e-13 1.3059856738560603e-20
1.0383996230291617 4.139515447027364e-21 1.1409942672831398e-13 1.1409941245117815e-13 1.427713584395197e-20
1.0403485208654093 4.155579804219089e-21 1.1475719229841604e-13 1.1475717737259905e-13 1.4925816974012033e-20
1.0423010764483396 4.171656718598343e-21 1.154173724013115e-13 1.154173567986412e-13 1.5602670329816937e-20
1.0462171883269815 4.203847781717263e-21 1.1674499367806146e-13 1.1674497663247212e-13 1.7045589332778826e-20
1.0471985131304309 4.211903226635238e-21 1.170784149502551e-13 1.170783975244566e-13 1.742579848727681e-20
1.048180758391296 4.219961716976086e-21 1.1741244372497486e-13 1.1741242591085726e-13 1.7814117605323123e-20
1.0501480137395462 4.236087782507931e-21 1.180823260530768e-13 1.1808230743733005e-13 1.8615746706945417e-20
1.0521189612883777 4.252225876798683e-21 1.187546452408052e-13 1.1875462578897482e-13 1.945183041074189e-20
1.0531058218030118 4.2602887147592244e-21 1.190914213100584e-13 1.1909140142679944e-13 1.9883258971131885e-20
1.0540936079674168 4.268319504924032e-21 1.1942782797486867e-13 1.1942780765093793e-13 2.0323930749678648e-20
1.058054026499678 4.300470711548157e-21 1.2077951228257596e-13 1.2077949010070981e-13 2.2181866137533525e-20
1.0590464539527713 4.308515466775233e-21 1.211189507146472e-13 1.211189280435186e-13 2.2671128636426677e-20
1.06003981227728 4.316562980751452e-21 1.214589972798447e-13 1.2145897410914254e-13 2.3170702123887976e-20
1.0620293250338977 4.332666240720444e-21 1.221409172239713e-13 1.2214089302235976e-13 2.4201611538607072e-20
1.0660195594769086 4.364905387096181e-21 1.2351208149813074e-13 1.2351205510162226e-13 2.63965085170264e-20
1.070024785945596 4.397187482028062e-21 1.248930448676833e-13 1.2489301608675102e-13 2.8780932287945595e-20
1.0740450607676866 4.42951189428431e-21 1.2628384819769905e-13 1.2628381682733277e-13 3.1370366254184466e-20
1.07808044048254 4.4618780307590476e-21 1.2768453349502524e-13 1.276844993135438e-13 3.418148148139826e-20
1.0861967418109137 4.526683753163923e-21 1.3051429545751164e-13 1.30514254915615e-13 4.0541896647307557e-20
1.0902777775684922 4.559009701751619e-21 1.3194019137627346e-13 1.3194014724499432e-13 4.413127914103347e-20
1.0943741465085532 4.591373453462239e-21 1.3337605774972112e-13 1.3337600972703566e-13 4.8022685477722644e-20
1.1026131145906286 4.65621287789538e-21 1.3627789429305376e-13 1.3627783748371368e-13 5.680934006994761e-20
1.1109141095355224 4.7211994788630205e-21 1.3922020415097056e-13 1.3922013703496348e-13 6.711600708307886e-20
1.1192775983109025 4.786280512974497e-21 1.4220189790880731e-13 1.4220181871926697e-13 7.918954037208582e-20
1.1277040513999907 4.851220909256339e-21 1.452163863145001e-13 1.4521629300040144e-13 9.331409863634862e-20
1.1361939428280308 4.916297556831368e-21 1.4827231325994374e-13 1.4827220344361165e-13 1.0981633210556219e-19
1.1447477501889525 4.9815108980566596e-21 1.513701762061891e-13 1.513700471349624e-13 1.2907122669492962e-19
1.1533659546722406 5.046885360570364e-21 1.5451121250443994e-13 1.5451106099555107e-13 1.5150888888600923e-19
1.1707974979042381 5.178316393515484e-21 1.6093103369287684e-13 1.6093082571832096e-13 2.0797455585721698e-19
1.1884924949847024 5.3104147795091745e-21 1.6753066809801477e-13 1.6753038404514127e-13 2.840528734746789e-19
1.2064549276569216 5.444074804726532e-21 1.7434304169318507e-13 1.7434265564943743e-13 3.860437476576467e-19
1.2246888378427687 5.5784335277033854e-21 1.8134578051998112e-13 1.8134525843828187e-13 5.220816992790635e-19
1.2431983285522175 5.713384588462552e-21 1.8853991614012816e-13 1.8853921350716987e-13 7.02632958345296e-19
1.2619875648066055 5.849128089862339e-21 1.9593663293347748e-13 1.9593569183815567e-13 9.410953217790448e-19
1.3004222497298317 6.1221745308188e-21 2.113292106347571e-13 2.1132754614964572e-13 1.6644851113513509e-18
1.3400274889804893 6.3984285325166815e-21 2.275917231364371e-13 2.2758883322890494e-13 2.88990753218759e-18
1.3808389325824078 6.678947417852697e-21 2.4480511107523663e-13 2.448001833102395e-13 4.92776499698812e-18
1.4228933163050095 6.96613891942106e-21 2.63107909151629e-13 2.6309965270053307e-13 8.256451095931563e-18
1.466228494730424 7.265058127555423e-21 2.8275492738058016e-13 2.8274132760836055e-13 1.3599772219618852e-17
1.5108834753276823 7.575193295524302e-21 3.038044448149283e-13 3.03782412702469e-13 2.2032112459271182e-17
1.5568984535646726 7.896387344020578e-21 3.2633087397945293e-13 3.2629573204687113e-13 3.51419325818378e-17
1.6043148490894465 8.23064181786663e-21 3.5050380641269906e-13 3.5044851562735915e-13 5.529078534002276e-17
1.6531753430134553 8.580090207442643e-21 3.7651319962641573e-13 3.764274916064083e-13 8.570802000735804e-17
1.7035239163302658 8.947233775292575e-21 4.0458190319626427e-13 4.0445097507137893e-13 1.3092812488509445e-16
1.755405889504358 9.338992382290217e-21 4.351580333227461e-13 4.34960834827443e-13 1.9719849530312493e-16
1.8088679632656115 9.755573758345516e-21 4.68413191192182e-13 4.681202462128681e-13 2.9294497931391926e-16
1.8639582606462262 1.0197042451806644e-20 5.045216918583323e-13 5.040923020551321e-13 4.293898032002014e-16
1.9207263702978936 1.066492775971316e-20 5.437419621790482e-13 5.431207176338546e-13 6.212445451936221e-16
1.979223391128241 1.1161431443237752e-20 5.863867440858889e-13 5.854992108359604e-13 8.875332499283243e-16
2.039501978296691 1.168853022005399e-20 6.327810546522387e-13 6.315285749486705e-13 1.2524797035681556e-15
2.1016163906111602 1.2251754044024956e-20 6.834726644653796e-13 6.817260462218658e-13 1.74661824351381e-15
2.1656225393682647 1.2853965237518005e-20 7.389062107275826e-13 7.364984481907611e-13 2.4077625368214067e-15
2.231578038680979 1.3494150173767686e-20 7.993317262349496e-13 7.960496361045297e-13 3.282090130419968e-15
2.299542257339062 1.4173210623305178e-20 8.651254116232532e-13 8.607001506068221e-13 4.425261016431203e-15
2.369576372248914 1.4893398316832636e-20 9.367721017660971e-13 9.308685075270207e-13 5.903594239076578e-15
2.4417434235010123 1.565738567892614e-20 1.0148192790601234e-12 1.0070243680863675e-12 7.794910973755784e-15
2.5161083711144245 1.6470570778411834e-20 1.1000373352435312e-12 1.0898476687489052e-12 1.0189666494626015e-14
2.5927381535095444 1.73418457016244e-20 1.1935027099283254e-12 1.1803111599644833e-12 1.3191549963842094e-14
2.6717017477616296 1.8278901722183948e-20 1.2963059231833652e-12 1.2793887777957567e-12 1.6917145387607994e-14
2.753070231689431 1.929294435518659e-20 1.409890016490397e-12 1.3883940948884585e-12 2.1495921601938426e-14
2.836916847834745 2.0414166340159696e-20 1.5372612809607855e-12 1.5101905945214576e-12 2.7070686439328053e-14
2.9233170693905177 2.1708458244834462e-20 1.684512880159183e-12 1.6507231469413457e-12 3.3789733217837355e-14
2.967498994190263 2.248156481157114e-20 1.7708694676870085e-12 1.733316114853749e-12 3.7553352833259377e-14
3.0123486681368425 2.330768876370122e-20 1.863690886977381e-12 1.822009020246156e-12 4.1681866731224623e-14
3.0578761833420214 2.458018136996741e-20 1.995144762914809e-12 1.9489266955024566e-12 4.621806741235222e-14
3.1040917844459814 2.605203338730818e-20 2.1465727581771026e-12 2.0954266642878117e-12 5.114609388929079e-14
3.127460860933648 2.734765218730398e-20 2.2702901465055283e-12 2.216508769275423e-12 5.378137723010503e-14
3.1510058709225794 2.897187778572645e-20 2.423233643069696e-12 2.3667077620239907e-12 5.6525881045704843e-14
3.162844764501044 3.040385989570456e-20 2.5525604299827785e-12 2.4946151855987094e-12 5.794524438406909e-14
3.1747281389236908 3.201862783764145e-20 2.6982282851576496e-12 2.638835466397605e-12 5.939281876004424e-14
3.1986289994194426 3.6358685550709475e-20 3.087034460131744e-12 3.0246529524926633e-12 6.238150763908086e-14
3.2227097969389145 4.627864994754275e-20 3.958870662798075e-12 3.893324681295651e-12 6.554598150242237e-14
3.2348180950136065 5.554146593573633e-20 4.769102262611889e-12 4.701868151966373e-12 6.723411064551635e-14
3.240889293275058 6.244823722350046e-20 5.372220290472622e-12 5.3040957329539405e-12 6.812455751868238e-14
3.2469718861334385 7.044837603317273e-20 6.071820828580092e-12 6.002774923335122e-12 6.904590524496964e-14
3.2714166318528037 1.1238948803671996e-19 9.759576738866744e-12 9.686725354334091e-12 7.285138453264808e-14
3.2744851364798273 1.150173847293948e-19 9.99714393228416e-12 9.923844635827382e-12 7.32992964567764e-14
3.2775565192852394 1.177151925254687e-19 1.02412304742745e-11 1.0167481078131946e-11 7.374939614255285e-14
3.283707930232385 1.1516499677264109e-19 1.0038167879630525e-11 9.963614679825283e-12 7.455319980524149e-14
3.2898708863219004 1.0699823162580513e-19 9.343829114228801e-12 9.268545437879815e-12 7.528367634898586e-14
3.29141343181113 1.0506848787329394e-19 9.179612574004812e-12 9.104145497529856e-12 7.546707647495515e-14
3.292184975758714 1.0411970955254519e-19 9.098852182067228e-12 9.023293288264093e-12 7.55588938031355e-14
3.295272960557952 9.819656063522237e-20 8.589286805928187e-12 8.513370954579893e-12 7.5915851348293e-14
3.3076538914384823 7.752776221352502e-20 6.806858785100272e-12 6.729509736584907e-12 7.734904851536552e-14
3.310756385682612 7.327946854388223e-20 6.439897713346751e-12 6.362187522037867e-12 7.771019130888573e-14
3.313861789986515 6.934352706728695e-20 6.09971792871127e-12 6.02164545575026e-12 7.807247296100939e-14
3.3200813396944477 6.385598022872e-20 5.627554800067466e-12 5.548702616678521e-12 7.88521833889435e-14
3.345076488085796 5.434473402136582e-20 4.825395927280329e-12 4.743067771057751e-12 8.232815622257869e-14
3.3482140837626964 5.475231277322022e-20 4.866145839482043e-12 4.78334675533431e-12 8.279908414773218e-14
3.3513546224236106 5.516349249129692e-20 4.907288289358705e-12 4.824016211633633e-12 8.327207772507255e-14
3.3576445397418455 5.796866099793225e-20 5.16651172259873e-12 5.0822505443133364e-12 8.426117828539399e-14
3.3702598118196083 6.807760007546027e-20 6.090277087371521e-12 6.003941326979611e-12 8.633576039190936e-14
3.382922481734668 7.05419735267317e-20 6.334452514762358e-12 6.246101891465385e-12 8.835062329697168e-14
3.389271646505754 7.181157281752915e-20 6.4605612806927244e-12 6.3711897083421705e-12 8.937157235055534e-14
3.395632727569191 7.320599738271436e-20 6.598372142737446e-12 6.507948420799273e-12 9.042372193817317e-14
3.421196662673239 7.99457775478866e-20 7.260106701485325e-12 7.165329306020731e-12 9.477739546459325e-14
3.4276182099114902 7.87854904409961e-20 7.168167043180329e-12 7.072419797641675e-12 9.574724553865137e-14
3.4340518103208963 7.340539389500647e-20 6.691203675014207e-12 6.594539968863489e-12 9.666370615071766e-14
3.4469541582030403 6.570179589895135e-20 6.011490726463118e-12 5.9130697128809585e-12 9.842101358215779e-14
3.472904465399547 6.36797783616639e-20 5.870347533111852e-12 5.76787586781906e-12 1.0247166529279146e-13
3.4990501388274233 6.05563105734651e-20 5.624436350022083e-12 5.51782349274973e-12 1.0661285727235078e-13
3.5253949054701885 4.913834380394594e-20 4.598304429443069e-12 4.487674666945024e-12 1.1062976249804492e-13
3.5519380250092896 3.8276253576056313e-20 3.6088118124183935e-12 3.4941497455877712e-12 1.1466206683062212e-13
3.578680990867387 3.4136768758422934e-20 3.2427601676869236e-12 3.1236792759429203e-12 1.1908089174400318e-13
3.605625307711299 3.26438108517811e-20 3.1242866937296934e-12 3.0005550637284733e-12 1.23731630001219e-13
3.660119384959845 3.1926865518484727e-20 3.101851250339327e-12 2.968363104364048e-12 1.3348814597527795e-13
3.715437065384467 3.155760828200013e-20 3.1123141227584097e-12 2.9685617017342264e-12 1.4375242102418322e-13
3.8285932144167436 3.220818992703931e-20 3.273218347368847e-12 3.1074795542773794e-12 1.65738793091467e-13
3.94519561050918 3.3219296814864077e-20 3.4787915730466567e-12 3.289189430180291e-12 1.8960214286636527e-13
4.06534921144712 3.4362747967678997e-20 3.708131927847528e-12 3.4928451578216115e-12 2.1528677002591747e-13
4.189162171576248 3.55679226158271e-20 3.955078490356052e-12 3.712266894223552e-12 2.4281159613249924e-13
4.316745939156006 3.680135446289519e-20 4.216865268243522e-12 3.944825195220607e-12 2.7204007302291546e-13
4.448215356677963 3.804332692720069e-20 4.491937733963815e-12 4.189410507824671e-12 3.0252722613914427e-13
4.58368876423945 3.928652247528023e-20 4.780002702762495e-12 4.445725201535172e-12 3.342775012273241e-13
4.723288106065518 4.0530956279816837e-20 5.081602857088564e-12 4.714144746369985e-12 3.674581107185788e-13
4.867139040275056 4.1774292667619555e-20 5.39699842187187e-12 4.995873697121115e-12 4.011247247507547e-13
4.940699165968905 4.241301508621638e-20 5.562333074212789e-12 5.14409717307669e-12 4.1823590113609996e-13
5.015371051989984 4.3035648441586634e-20 5.729290627404055e-12 5.2938176658957275e-12 4.354729615083257e-13
5.091171501069577 4.3702080365227854e-20 5.905943274073123e-12 5.452724758850471e-12 4.532185152226518e-13
5.129500256944802 4.4028215038386184e-20 5.9948119989856e-12 5.532695307198108e-12 4.621166917874906e-13
5.168117569889187 4.4355160138512673e-20 6.084795256338128e-12 5.613671955259443e-12 4.711233010786858e-13
5.20702561229733 4.4726082046858284e-20 6.181871923596499e-12 5.700882061030098e-12 4.809898625664011e-13
5.246226572918644 4.5093500543981206e-20 6.279577521806246e-12 5.788679703132099e-12 4.908978186741455e-13
5.265937586045735 4.527588706477405e-20 6.328665013577402e-12 5.8327991751166e-12 4.95865838460803e-13
5.285722656980489 4.545738800164539e-20 6.3779084693122885e-12 5.877066048925201e-12 5.008424203870878e-13
5.305582063971359 4.5638001176886534e-20 6.427307594512544e-12 5.9214806346749556e-12 5.058269598375868e-13
5.3255160863122235 4.5826282235037964e-20 6.478071832765961e-12 5.967210465260651e-12 5.108613675053092e-13
5.365609099470188 4.6266420008033045e-20 6.589528777598698e-12 6.068249122097627e-12 5.212796555010735e-13
5.406003951863644 4.670649897879114e-20 6.7022883222982936e-12 6.170550276248978e-12 5.317380460493181e-13
5.446702915881641 4.714673988371435e-20 6.816395613064962e-12 6.274163921157652e-12 5.422316919073109e-13
5.487708281020852 4.760354025456698e-20 6.934253303388762e-12 6.381449520388131e-12 5.528037830006328e-13
5.529022354014368 4.820462821140331e-20 7.074675369197401e-12 6.510851868804603e-12 5.63823500392798e-13
5.570647458961463 4.881708794383327e-20 7.218500269047474e-12 6.643617223141116e-12 5.748830459063594e-13
5.612585937458331 4.944215753490069e-20 7.365968391235994e-12 6.779990909691314e-12 5.859774815446789e-13
5.654840148729818 5.010540318831264e-20 7.520978150496444e-12 6.923817409831437e-12 5.971607406650078e-13
5.67608639626678 5.055004834120616e-20 7.616229208729833e-12 7.013210838968984e-12 6.030183697608518e-13
5.686739436050992 5.0776031213200104e-20 7.664635650180099e-12 7.0586842600344375e-12 6.059513901456625e-13
5.6974124697621304 5.100454374659868e-20 7.71357953349002e-12 7.104692423419309e-12 6.088871100707092e-13
5.718818669136295 5.146943674727699e-20 7.81313223922785e-12 7.198365905332646e-12 6.147663338952032e-13
5.740305295436557 5.197545080392958e-20 7.919589818534084e-12 7.29888752598356e-12 6.207022925505244e-13
5.7835210386641895 5.3273457568181345e-20 8.178480776254989e-12 7.545514022704354e-12 6.32966753550635e-13
5.827062130521658 5.472242216862735e-20 8.464170323304372e-12 7.818775746230505e-12 6.453945770738639e-13
5.8489554468988025 5.574354769367596e-20 8.654507356108334e-12 8.002379809375852e-12 6.521275467324832e-13
5.870931020387893 5.681885683183581e-20 8.854599091104302e-12 8.195717643962337e-12 6.588814471419633e-13
5.892989160043636 5.79526885397401e-20 9.065226586676817e-12 8.399570931426127e-12 6.656556552506882e-13
5.915130176081913 5.923161194797952e-20 9.300093002657224e-12 8.627408289612922e-12 6.726847130443021e-13
5.95966208400165 6.281466881928687e-20 9.93692800139941e-12 9.248097057602288e-12 6.888309437971239e-13
6.004529249263818 6.791677071292966e-20 1.082493820351182e-11 1.0117865267925776e-11 7.070729355860449e-13
6.027089341400364 7.145325270024285e-20 1.1431390635936228e-11 1.071371273835828e-11 7.176778975779475e-13
6.049734195844842 7.558305290767851e-20 1.213752553120028e-11 1.1408600268405949e-11 7.289252627943296e-13
6.095279466722835 8.747026874097436e-20 1.4152185633973202e-11 1.3395393561365541e-11 7.567920726076613e-13
6.141167624020661 1.0554358874333723e-19 1.7204903533182424e-11 1.6411670848999866e-11 7.93232684182559e-13
6.164241091010745 1.1705055660664132e-19 1.9152370408694384e-11 1.8336135085726233e-11 8.162353229681523e-13
6.187401249150058 1.2995792131303908e-19 2.1344228906889926e-11 2.0504398659325506e-11 8.398302475644243e-13
6.1990139391386085 1.362227416769023e-19 2.2415150687588262e-11 2.15633193907967e-11 8.518312967915565e-13
6.204828454712694 1.3950592688601283e-19 2.2976923114822303e-11 2.2119032904302526e-11 8.578902105197737e-13
6.210648424152782 1.4187811047965096e-19 2.3389545034889656e-11 2.2526521980814416e-11 8.630230540752414e-13
6.233982942956859 1.4980892647867155e-19 2.4789783540088995e-11 2.3908989306864303e-11 8.807942332246853e-13
6.239830258556775 1.5074940965510753e-19 2.496880909799591e-11 2.408564258670669e-11 8.83166511289224e-13
6.245683058788269 1.5072014377950045e-19 2.49873773090278e-11 2.410183568787187e-11 8.855416211559347e-13
6.257405133728602 1.50246222948579e-19 2.4955557150756702e-11 2.406591308299936e-11 8.896440677573416e-13
6.269149208991335 1.4836465779929916e-19 2.4689284186820074e-11 2.3798397737788713e-11 8.908864490313578e-13
6.280915325867298 1.4402969951416755e-19 2.4012889718002372e-11 2.3124294041850396e-11 8.885956761519814e-13
6.304513850009849 1.334991711275553e-19 2.2340845513720914e-11 2.1460022975702936e-11 8.808225380179815e-13
6.32820103803542 1.2069889072723414e-19 2.027463196606597e-11 1.9404977817074245e-11 8.69654148991721e-13
6.3519772230701035 1.0903380296453698e-19 1.838397942048624e-11 1.7524408175935238e-11 8.595712445510056e-13
6.375842739491607 9.918708353070607e-20 1.6786577129126454e-11 1.5935972658550002e-11 8.506044705764497e-13
6.399797922933955 9.138975443596101e-20 1.5525057042590728e-11 1.467940178879573e-11 8.456552537949933e-13
6.42384311029221 8.48740150292291e-20 1.4472351632082762e-11 1.3630842574486219e-11 8.415090575965426e-13
6.447978639727206 8.014797964237806e-20 1.3717835870507591e-11 1.2877347326517194e-11 8.404885439903959e-13
6.472204850670314 7.619045116876314e-20 1.3089475149954154e-11 1.2249389150103641e-11 8.400859998505164e-13
6.496522083828205 7.361069335940844e-20 1.2693788578386612e-11 1.1851579045709836e-11 8.422095326767766e-13
6.520930681187647 7.14235294850887e-20 1.2362899085509558e-11 1.1518189880990472e-11 8.447092045190882e-13
6.57002334288761 6.910089537604294e-20 1.2050914922754323e-11 1.1197731868009911e-11 8.531830547444141e-13
