Dust emission spectrum from A.P. Jones, M. Kohler, N. Ysard, M. Bocchio, and L. Verstraete (2017), A&A, 602A, 46J 
inside the DustPedia framework.

lambda    nu*dP/dnu     j_nu    j_nu(carb.) j_nu(sil)
 (um)   (erg s-1 H-1) (Jy cm2 sr-1 H-1)
0.9927057738263894 1.5674667813386223e-19 4.130363999163073e-12 4.130363897361022e-12 1.0180205197562451e-19
1.0001793341362166 1.5937258537838268e-19 4.23117441382889e-12 4.231174291360138e-12 1.224687528248646e-19
1.0077091589558085 1.620100193814042e-19 4.333576952517149e-12 4.333576805384235e-12 1.4713291458751736e-19
1.0114953028030835 1.633329590909802e-19 4.385379010128945e-12 4.385378848940904e-12 1.6118803974813557e-19
1.0152956718711033 1.6465866292380184e-19 4.4375836461480685e-12 4.437583469621725e-12 1.76526344091128e-19
1.0229392996569957 1.673169194733226e-19 4.5431717679967046e-12 4.543171556487186e-12 2.115095185432341e-19
1.0267826658714554 1.6864646044531001e-19 4.5964780655590225e-12 4.596477834146587e-12 2.3141243492862094e-19
1.0306404723013447 1.699785584711148e-19 4.650190747168236e-12 4.6501904940651745e-12 2.531030604759367e-19
1.03451277320114 1.7131318162888535e-19 4.70431150029537e-12 4.704311223561645e-12 2.767337257197044e-19
1.0383996230291617 1.7265029932878192e-19 4.758842050470456e-12 4.7588417480014696e-12 3.0246898607158874e-19
1.0403485208654093 1.733197844445235e-19 4.7862615494537085e-12 4.786261233272879e-12 3.161808297886927e-19
1.0423010764483396 1.7398988234383163e-19 4.813784162778778e-12 4.81378383229224e-12 3.3048653752761143e-19
1.0462171883269815 1.7533190284048765e-19 4.86913964337539e-12 4.869139282397194e-12 3.6097819563463495e-19
1.0471985131304309 1.7566778569453454e-19 4.88304331801267e-12 4.8830429490010734e-12 3.690115960601526e-19
1.048180758391296 1.7600381883489876e-19 4.896972972812002e-12 4.896972595596129e-12 3.772158738703688e-19
1.0501480137395462 1.7667633440887017e-19 4.924910341017367e-12 4.924909946866426e-12 3.9415094167808e-19
1.0521189612883777 1.7734944648852096e-19 4.952951985996905e-12 4.952951574185081e-12 4.118118247064866e-19
1.0531058218030118 1.7768578439819782e-19 4.966999663019298e-12 4.96699924209505e-12 4.2092424537994334e-19
1.0540936079674168 1.7802082597681976e-19 4.981033063756568e-12 4.981032633525197e-12 4.3023137080412807e-19
1.058054026499678 1.793624077079361e-19 5.0374262674595315e-12 5.0374257979938324e-12 4.694656997750765e-19
1.0590464539527713 1.7969815531117339e-19 5.051589621642283e-12 5.0515891418462596e-12 4.797960240659912e-19
1.06003981227728 1.800340431302676e-19 5.0657790590216135e-12 5.065778568678185e-12 4.903434287701553e-19
1.0620293250338977 1.807062381601322e-19 5.094236308703491e-12 5.0942357965966085e-12 5.121068822772565e-19
1.0660195594769086 1.8205229734024387e-19 5.151465196126291e-12 5.1514646376914654e-12 5.584348254802935e-19
1.070024785945596 1.8340056683906038e-19 5.209114989207808e-12 5.209114380456777e-12 6.087510308624854e-19
1.0740450607676866 1.84751029859062e-19 5.267187799900922e-12 5.267187136520781e-12 6.633801434117614e-19
1.07808044048254 1.8610367124169593e-19 5.325685794276416e-12 5.325685071604813e-12 7.226716028204343e-19
1.0861967418109137 1.8881338798170036e-19 5.443907206495996e-12 5.44390634972194e-12 8.567740549668054e-19
1.0902777775684922 1.9016578383348124e-19 5.5035000040838954e-12 5.503499071659353e-12 9.324245443681605e-19
1.0943741465085532 1.9152023494776658e-19 5.563523458840234e-12 5.563522444420161e-12 1.0144200737636843e-18
1.1026131145906286 1.942352800270923e-19 5.684872159770812e-12 5.6848709602785705e-12 1.1994922428114595e-18
1.1109141095355224 1.969584955333643e-19 5.80797360505228e-12 5.807972188582209e-12 1.4164700703631228e-18
1.1192775983109025 1.9968777723183758e-19 5.932786604250107e-12 5.932784933736175e-12 1.6705139324644427e-18
1.1277040513999907 2.024134777503615e-19 6.059042523537408e-12 6.059040555977243e-12 1.9675601643862248e-18
1.1361939428280308 2.0514713513263055e-19 6.187103187539784e-12 6.187100873111245e-12 2.3144285394571575e-18
1.1447477501889525 2.0788884695927115e-19 6.316993386043264e-12 6.3169906671004665e-12 2.7189427965971217e-18
1.1533659546722406 2.1063967824987672e-19 6.4487678563507944e-12 6.448764666279977e-12 3.190070818346753e-18
1.1707974979042381 2.1617702883751197e-19 6.718321181579538e-12 6.718316806870163e-12 4.3747093769892724e-18
1.1884924949847024 2.217528065762409e-19 6.995761608241304e-12 6.99575563916584e-12 5.969075464595544e-18
1.2064549276569216 2.2740431804563757e-19 7.282479011460319e-12 7.282470907340896e-12 8.10411942360791e-18
1.2246888378427687 2.3309675643628756e-19 7.577595578165349e-12 7.577584629472445e-12 1.094869290372572e-17
1.2431983285522175 2.388260622099732e-19 7.881185844214678e-12 7.881171124472685e-12 1.4719741992887955e-17
1.2619875648066055 2.4460128258143224e-19 8.19375999019092e-12 8.193740295598939e-12 1.9694591980840603e-17
1.3004222497298317 2.5625740190714654e-19 8.84566001699859e-12 8.845625258651162e-12 3.475834742776531e-17
1.3400274889804893 2.681033230525538e-19 9.536419288274121e-12 9.536359072914212e-12 6.021535990763737e-17
1.3808389325824078 2.8018407634833777e-19 1.0269656225863724e-11 1.0269553779335703e-11 1.0244652801947675e-16
1.4228933163050095 2.9259783817553683e-19 1.1051287709756183e-11 1.1051116453879564e-11 1.7125587661653332e-16
1.466228494730424 3.055488278512631e-19 1.1891912647280635e-11 1.1891631217372233e-11 2.8142990840577738e-16
1.5108834753276823 3.190086917083756e-19 1.2793899072233746e-11 1.2793444226975857e-11 4.5484525788838e-16
1.5568984535646726 3.3295861443346182e-19 1.3760048856941708e-11 1.375932510929928e-11 7.2374764242641e-16
1.6043148490894465 3.474628304258092e-19 1.4796785882093378e-11 1.4795649932455565e-11 1.1359496378131777e-15
1.6531753430134553 3.6258481329421417e-19 1.5911017820177587e-11 1.590926128030404e-11 1.7565398735428216e-15
1.7035239163302658 3.783943805196666e-19 1.7110486042308872e-11 1.7107809435714384e-11 2.676606594488821e-15
1.755405889504358 3.9513477690942945e-19 1.841163001089875e-11 1.8407608816434832e-11 4.021194463916366e-15
1.8088679632656115 4.127631306921203e-19 1.9818792829952588e-11 1.9812834532689666e-11 5.958297262924485e-15
1.8639582606462262 4.3121852766522944e-19 2.1335509993858556e-11 2.132679921100442e-11 8.710782854142311e-15
1.9207263702978936 4.504895863100513e-19 2.2967815358933386e-11 2.29552457482459e-11 1.2569610687485496e-14
1.979223391128241 4.705805864120822e-19 2.472283410058404e-11 2.470492466605197e-11 1.7909434532064527e-14
2.039501978296691 4.914731296557607e-19 2.6606842730597158e-11 2.658163755371272e-11 2.520517688443162e-14
2.1016163906111602 5.132834722060766e-19 2.8633877330064226e-11 2.8598824568286642e-11 3.505276177758108e-14
2.1656225393682647 5.360046090759931e-19 3.081205894884906e-11 3.076387238428119e-11 4.818656456787159e-14
2.231578038680979 5.594574313407308e-19 3.313969895028204e-11 3.3074200165046847e-11 6.549878523520086e-14
2.299542257339062 5.8353404145173615e-19 3.561861466850818e-11 3.553055564271067e-11 8.805902579751486e-14
2.369576372248914 6.081704715219869e-19 3.825299765170661e-11 3.81358631400136e-11 1.171345116930126e-13
2.4417434235010123 6.333141688248476e-19 4.1047684549945405e-11 4.0893481363043315e-11 1.5420318690208426e-13
2.5161083711144245 6.590154674560642e-19 4.4014359214243386e-11 4.381338716795981e-11 2.009720462835763e-13
2.5927381535095444 6.854596813362686e-19 4.717479334652437e-11 4.691540898461086e-11 2.5938436191349915e-13
2.6717017477616296 7.12773282363983e-19 5.054856368607275e-11 5.0216955392469356e-11 3.3160829360338906e-13
2.753070231689431 7.412183900845715e-19 5.4166766304821755e-11 5.374673479417256e-11 4.200315106492113e-13
2.836916847834745 7.71790531054201e-19 5.8118645681247304e-11 5.7591380692490955e-11 5.272649887563293e-13
2.9233170693905177 8.068488011950815e-19 6.260910759415724e-11 6.195312990327971e-11 6.55977690877526e-13
2.967498994190263 8.284493466333815e-19 6.525683001937705e-11 6.452908123347496e-11 7.277487859020911e-13
3.0123486681368425 8.514451807944147e-19 6.808185231470258e-11 6.727550951815684e-11 8.06342796545755e-13
3.0578761833420214 8.906788857266882e-19 7.229537030461528e-11 7.14028065588635e-11 8.925637457517902e-13
3.1040917844459814 9.366973434055082e-19 7.717973373205785e-11 7.61937108430922e-11 9.86022888965643e-13
3.127460860933648 9.805796327965844e-19 8.140370745374616e-11 8.036778943255157e-11 1.035918021194553e-12
3.1510058709225794 1.0365798323017465e-18 8.670045973335767e-11 8.561263850194886e-11 1.0878212314087801e-12
3.162844764501044 1.0879254590616819e-18 9.133693837222396e-11 9.022229746955856e-11 1.1146409026654083e-12
3.1747281389236908 1.1459828180688007e-18 9.657263483298859e-11 9.543065723693335e-11 1.1419775960552392e-12
3.1986289994194426 1.3033948365184565e-18 1.1066474803877343e-10 1.0946637942522461e-10 1.1983686135487803e-12
3.2227097969389145 1.6699159580038039e-18 1.4285164547741136e-10 1.415936294484028e-10 1.2580160290085478e-12
3.2348180950136065 2.0142652971867883e-18 1.7295613330460016e-10 1.7166631238550507e-10 1.2898209190950841e-12
3.240889293275058 2.271722685687144e-18 1.954289704399016e-10 1.9412237298932086e-10 1.3065974505807655e-12
3.2469718861334385 2.570204945547479e-18 2.2152141469870463e-10 2.2019745852815572e-10 1.3239561705489207e-12
3.2714166318528037 4.1337163246847344e-18 3.589599204712621e-10 3.575643164153709e-10 1.3956040558911605e-12
3.2744851364798273 4.231139628738826e-18 3.677645076491038e-10 3.663604849329661e-10 1.4040227161376748e-12
3.2775565192852394 4.331147192338374e-18 3.7681012673999014e-10 3.753976455380152e-10 1.412481201974995e-12
3.283707930232385 4.2337117659886044e-18 3.690245356830223e-10 3.6759697854766776e-10 1.427557135354504e-12
3.2898708863219004 3.926041731986626e-18 3.428492460259188e-10 3.414080153893562e-10 1.44123063656259e-12
3.29141343181113 3.85330989510343e-18 3.3665557276587925e-10 3.3521090980504185e-10 1.444662960837421e-12
3.292184975758714 3.817545729588702e-18 3.3360911628628817e-10 3.321627350695152e-10 1.4463812167729544e-12
3.295272960557952 3.595082189414642e-18 3.144630709671768e-10 3.1301001483953524e-10 1.4530561276414798e-12
3.3076538914384823 2.8179372598360714e-18 2.474120295146388e-10 2.459321865918321e-10 1.4798429228067263e-12
3.310756385682612 2.657922542620662e-18 2.3358178824980824e-10 2.3209519817054005e-10 1.4865900792681181e-12
3.313861789986515 2.5095610084870894e-18 2.2075044238534059e-10 2.1925708495536993e-10 1.4933574299705448e-12
3.3200813396944477 2.302253948633559e-18 2.02895018026517e-10 2.0138708289173474e-10 1.507935134782268e-12
3.345076488085796 1.9395315982240234e-18 1.7221554293047394e-10 1.7064258388962018e-10 1.5729590408537834e-12
3.3482140837626964 1.9539102828588798e-18 1.7365499121537313e-10 1.7207322099662714e-10 1.5817702187459513e-12
3.3513546224236106 1.9684170369628735e-18 1.751083812466379e-10 1.7351776262330716e-10 1.5906186233307376e-12
3.3576445397418455 2.0715771130482704e-18 1.8463126894052113e-10 1.8302214195548105e-10 1.609126985040069e-12
3.3702598118196083 2.445626225578243e-18 2.1878769741301527e-10 2.1713975208307892e-10 1.6479453299363608e-12
3.382922481734668 2.5341327615160442e-18 2.2755733702068863e-10 2.2587173954281651e-10 1.6855974778720797e-12
3.389271646505754 2.5797349369352134e-18 2.3208704383015043e-10 2.3038237698803088e-10 1.7046668421195487e-12
3.395632727569191 2.630058748850625e-18 2.3705853348945125e-10 2.353342143692995e-10 1.7243191201516945e-12
3.421196662673239 2.874862282076493e-18 2.6107453776966487e-10 2.592689511749189e-10 1.8055865947459198e-12
3.4276182099114902 2.829727896270023e-18 2.574580945510749e-10 2.5563445787471083e-10 1.8236366763640614e-12
3.4340518103208963 2.6270404211457157e-18 2.394655431659888e-10 2.376248761427327e-10 1.840667023256128e-12
3.4469541582030403 2.335670423519063e-18 2.1370589492947385e-10 2.1183262505514696e-10 1.8732698743268887e-12
3.472904465399547 2.2524287644654255e-18 2.0764110650469755e-10 2.0569260247345952e-10 1.948504031238058e-12
3.4990501388274233 2.1282793108486043e-18 1.9767339531715268e-10 1.9564809041193722e-10 2.0253049052153934e-12
3.5253949054701885 1.6959523649189167e-18 1.5870508991605172e-10 1.566054760775552e-10 2.099613838496554e-12
3.5519380250092896 1.2842529836517092e-18 1.2108361985654318e-10 1.1890956156999318e-10 2.17405828655001e-12
3.578680990867387 1.1228511184263183e-18 1.0666319670859769e-10 1.044075735614722e-10 2.255623147125491e-12
3.605625307711299 1.059933047501179e-18 1.0144448917402097e-10 9.91031072191825e-11 2.3413819548385096e-12
3.660119384959845 1.0182353500380316e-18 9.892654798281218e-11 9.640565786411242e-11 2.5208901186997504e-12
3.715437065384467 9.889895654908272e-19 9.75373724279816e-11 9.482820940050661e-11 2.7091630274750075e-12
3.8285932144167436 9.808853074589988e-19 9.968432849881859e-11 9.65738856438873e-11 3.110442854931303e-12
3.94519561050918 9.845367463170592e-19 1.0310266817297693e-10 9.955966552916957e-11 3.5430026438073633e-12
4.06534921144712 9.916447832691464e-19 1.0700976782713734e-10 1.0300459811834733e-10 4.005169708789984e-12
4.189162171576248 9.99795177677716e-19 1.1117512947566023e-10 1.0667847809907871e-10 4.496651376581518e-12
4.316745939156006 1.0079936950052416e-18 1.1550046635815213e-10 1.1048618561403022e-10 5.0142807441218994e-12
4.448215356677963 1.0158204929040194e-18 1.199422545704533e-10 1.1439290715887155e-10 5.5493474115817185e-12
4.58368876423945 1.0232393726393402e-18 1.244978343366126e-10 1.1839650171834398e-10 6.1013326182686495e-12
4.723288106065518 1.0304644442890263e-18 1.291953495514949e-10 1.2252272487333566e-10 6.672624678159228e-12
4.867139040275056 1.0377742274325234e-18 1.3407446326563464e-10 1.2682886109024109e-10 7.245602175393534e-12
4.940699165968905 1.0421254285456994e-18 1.3667146103370866e-10 1.2913717573614637e-10 7.534285297562275e-12
5.015371051989984 1.0460237543159071e-18 1.392560425754603e-10 1.3143271810009372e-10 7.82332447536654e-12
5.091171501069577 1.0515293200587479e-18 1.4210473422297153e-10 1.3398530151496544e-10 8.119432708006109e-12
5.129500256944802 1.054095846348166e-18 1.4352402027335262e-10 1.3525683943688704e-10 8.267180836465571e-12
5.168117569889187 1.0567238850762868e-18 1.4496506073006814e-10 1.365486723857052e-10 8.416388344362948e-12
5.20702561229733 1.0608173210827753e-18 1.4662220595123884e-10 1.380414807411104e-10 8.580725210128472e-12
5.246226572918644 1.0648348601270166e-18 1.4828551723474063e-10 1.3954027179832056e-10 8.745245436420017e-12
5.265937586045735 1.0668162635167098e-18 1.491196131215384e-10 1.4029206744738438e-10 8.827545674154015e-12
5.285722656980489 1.0687800351852479e-18 1.4995540962435293e-10 1.4104555234173533e-10 8.909857282617568e-12
5.305582063971359 1.070726652360169e-18 1.5079296566228358e-10 1.4180079699552695e-10 8.99216866675657e-12
5.3255160863122235 1.0729450252234916e-18 1.516731143573403e-10 1.4259787919219332e-10 9.075235165146963e-12
5.365609099470188 1.079562346932829e-18 1.5375745845671062e-10 1.445102332969769e-10 9.247225159733721e-12
5.406003951863644 1.0862296137047608e-18 1.5587175691703777e-10 1.4645242445243067e-10 9.419332464607073e-12
5.446702915881641 1.0929585183425947e-18 1.5801808710565524e-10 1.484266231671361e-10 9.591463938519182e-12
5.487708281020852 1.1003054857065016e-18 1.6027793118317704e-10 1.505135481433489e-10 9.764383039828141e-12
5.529022354014368 1.112570661626747e-18 1.6328465851418846e-10 1.5334000768120086e-10 9.944650832987559e-12
5.570647458961463 1.1252773090806971e-18 1.6639285341431615e-10 1.5626787090597346e-10 1.01249825083427e-11
5.612585937458331 1.1384711640614735e-18 1.6961117853505712e-10 1.593058949579421e-10 1.0305283577115004e-11
5.654840148729818 1.1530131796890785e-18 1.7307089415256379e-10 1.6258439424676606e-10 1.0486499905797707e-11
5.67608639626678 1.1640983205675755e-18 1.7539131854227942e-10 1.648097635203621e-10 1.0581555021917313e-11
5.686739436050992 1.1697701705041133e-18 1.7657666298724523e-10 1.6594757102892654e-10 1.0629091958318715e-11
5.6974124697621304 1.175531306122458e-18 1.7777934195299347e-10 1.6710270880998183e-10 1.0676633143011646e-11
5.718818669136295 1.1873310842739018e-18 1.802385135615181e-10 1.6946679133280151e-10 1.0771722228716565e-11
5.740305295436557 1.2005254622664184e-18 1.8292615226604689e-10 1.7205852976230724e-10 1.086762250373963e-11
5.7835210386641895 1.2365413593078596e-18 1.8983242683658206e-10 1.7876673601444027e-10 1.1065690822141805e-11
5.827062130521658 1.2776889014194848e-18 1.9762605625323035e-10 1.8636018671831197e-10 1.1265869534918338e-11
5.8489554468988025 1.30817347469719e-18 2.0310147861502273e-10 1.917267848420218e-10 1.1374693773000917e-11
5.870931020387893 1.3405057798022966e-18 2.0890320434618244e-10 1.9741952362655694e-10 1.1483680719625549e-11
5.892989160043636 1.3748331931436608e-18 2.1505774328632363e-10 2.0346492531322024e-10 1.159281797310346e-11
5.915130176081913 1.4140189887156224e-18 2.2201840655844568e-10 2.1031221622905927e-10 1.1706190329386437e-11
5.95966208400165 1.5265525623725674e-18 2.41492046169801e-10 2.2952344692665075e-10 1.1968599243150281e-11
6.004529249263818 1.6898241259175473e-18 2.6933320806989483e-10 2.5706699727459146e-10 1.2266210795303328e-11
6.027089341400364 1.8042810747830652e-18 2.886564432468724e-10 2.7621624672086533e-10 1.2440196526007103e-11
6.049734195844842 1.93862027732277e-18 3.1131387534780647e-10 2.9868893375180244e-10 1.2624941596003931e-11
6.095279466722835 2.3280933194514772e-18 3.766720887488972e-10 3.635862152067203e-10 1.3085873542176916e-11
6.141167624020661 2.923819392989553e-18 4.766185346147693e-10 4.629259836351584e-10 1.3692550979610994e-11
6.164241091010745 3.3033481235646743e-18 5.405095771051335e-10 5.264322137053973e-10 1.407736339973629e-11
6.187401249150058 3.730100718286988e-18 6.12630017258393e-10 5.981583002355534e-10 1.4471717022839485e-11
6.1990139391386085 3.936946771131196e-18 6.478158788877386e-10 6.331436446597243e-10 1.467223422801423e-11
6.204828454712694 4.045442960118841e-18 6.662930667884715e-10 6.515196378097367e-10 1.47734289787348e-11
6.210648424152782 4.123430779580939e-18 6.797748404683704e-10 6.64916078704504e-10 1.4858761763866373e-11
6.233982942956859 4.3833792309435486e-18 7.253441090820631e-10 7.101915793035119e-10 1.5152529778551366e-11
6.239830258556775 4.413669957611099e-18 7.310415532988284e-10 7.158510894826901e-10 1.5190463816138298e-11
6.245683058788269 4.4114989506313424e-18 7.313673276418296e-10 7.161388983994802e-10 1.522842924234938e-11
6.257405133728602 4.393333838038337e-18 7.297227945293645e-10 7.144295639219115e-10 1.5293230607452962e-11
6.269149208991335 4.328304179502386e-18 7.202708078853553e-10 7.049617692475838e-10 1.5309038637771523e-11
6.280915325867298 4.181562159927933e-18 6.971575399658753e-10 6.818931672844509e-10 1.5264372681424174e-11
6.304513850009849 3.826578762643634e-18 6.403710544436568e-10 6.252505516038286e-10 1.5120502839828127e-11
6.32820103803542 3.3960325376221006e-18 5.704551999626401e-10 5.55536572799556e-10 1.491862716308402e-11
6.3519772230701035 3.003705242313517e-18 5.064489530632859e-10 4.917135463243968e-10 1.4735406738889134e-11
6.375842739491607 2.6730580204258473e-18 4.5239251960279044e-10 4.378211038445597e-10 1.457141575823069e-11
6.399797922933955 2.4098882660909245e-18 4.093856365873956e-10 3.949096730892987e-10 1.447596349809687e-11
6.42384311029221 2.1901650787828663e-18 3.7345751984913243e-10 3.5906324680569467e-10 1.4394273043437795e-11
6.447978639727206 2.0296484940713357e-18 3.4738723347396635e-10 3.330214406956908e-10 1.4365792778275512e-11
6.472204850670314 1.8951059243972023e-18 3.2557809441215264e-10 3.1123027448213784e-10 1.4347819930014805e-11
6.496522083828205 1.8060625233746306e-18 3.114462693501414e-10 2.970735193658961e-10 1.4372749984245304e-11
6.520930681187647 1.730272058412893e-18 2.9949764458365767e-10 2.8509365311490485e-10 1.4403991468752802e-11
