Dust emission spectrum from A.P. Jones, M. Kohler, N. Ysard, M. Bocchio, and L. Verstraete (2017), A&A, 602A, 46J 
inside the DustPedia framework.

lambda    nu*dP/dnu     j_nu    j_nu(carb.) j_nu(sil)
 (um)   (erg s-1 H-1) (Jy cm2 sr-1 H-1)
0.9927057738263894 4.33243703691483e-20 1.1416217669781651e-12 1.1416216810374906e-12 8.59406742906165e-20
1.0001793341362166 4.405084888864425e-20 1.1695036777031282e-12 1.1695035743074386e-12 1.0339568939706326e-19
1.0077091589558085 4.4780469658436e-20 1.1978247516768475e-12 1.1978246274478113e-12 1.2422903608793016e-19
1.0114953028030835 4.514642991534348e-20 1.2121509781912602e-12 1.2121508420892313e-12 1.3610202901765928e-19
1.0152956718711033 4.551314218574949e-20 1.2265882150504126e-12 1.2265880659907602e-12 1.4905965221344256e-19
1.0229392996569957 4.624842245893244e-20 1.2557876865722942e-12 1.255787507956903e-12 1.786153909974878e-19
1.0267826658714554 4.661615744535159e-20 1.270528563910712e-12 1.2705283684789236e-12 1.9543178887607492e-19
1.0306404723013447 4.6984585798159706e-20 1.2853814510685057e-12 1.2853812373088611e-12 2.1375964439543803e-19
1.03451277320114 4.735369835549926e-20 1.3003468013212839e-12 1.3003465675934337e-12 2.3372785025103637e-19
1.0383996230291617 4.772348632724015e-20 1.31542507839291e-12 1.3154248229172574e-12 2.554756528570916e-19
1.0403485208654093 4.790863095045268e-20 1.3230067123613077e-12 1.3230064452978694e-12 2.6706343852922996e-19
1.0423010764483396 4.8093941303967723e-20 1.3306167568821265e-12 1.3306164777286976e-12 2.7915342877935973e-19
1.0462171883269815 4.84650552659124e-20 1.3459223226951712e-12 1.3459220177716565e-12 3.0492351488110124e-19
1.0471985131304309 4.85579358208402e-20 1.3497665670969909e-12 1.349766255383797e-12 3.1171319372273753e-19
1.048180758391296 4.8650856968890026e-20 1.3536179683935206e-12 1.3536176497461284e-12 3.1864739202709745e-19
1.0501480137395462 4.883682059181562e-20 1.3613422734842931e-12 1.3613419405231978e-12 3.329610955523723e-19
1.0521189612883777 4.9022945245742634e-20 1.3690953020822335e-12 1.3690949541935472e-12 3.4788868643034537e-19
1.0531058218030118 4.911594556466896e-20 1.3729791941141873e-12 1.3729788385232057e-12 3.555909817585918e-19
1.0540936079674168 4.92085857364931e-20 1.376859090666661e-12 1.3768587272087018e-12 3.6345795876133136e-19
1.058054026499678 4.9579527718506e-20 1.3924501708525482e-12 1.3924497742300385e-12 3.9662250931689244e-19
1.0590464539527713 4.96723580486583e-20 1.396365855657171e-12 1.3963654503021908e-12 4.053549802070848e-19
1.06003981227728 4.9765226123002716e-20 1.400288723055396e-12 1.4002883087843143e-12 4.1427108181746918e-19
1.0620293250338977 4.9951075138641756e-20 1.4081560394420582e-12 1.4081556067731473e-12 4.3266891071974423e-19
1.0660195594769086 5.0323222175389305e-20 1.4239772383039434e-12 1.4239767664698055e-12 4.718341379422096e-19
1.070024785945596 5.0695963453025364e-20 1.4399143234231382e-12 1.4399138090496714e-12 5.1437346675102515e-19
1.0740450607676866 5.1069294049955086e-20 1.4559678653736195e-12 1.4559673048118306e-12 5.605617882434924e-19
1.07808044048254 5.1443209506956164e-20 1.4721384497964689e-12 1.4721378391014592e-12 6.106950100599154e-19
1.0861967418109137 5.219221225321121e-20 1.504816811166816e-12 1.5048160870728145e-12 7.240940011546716e-19
1.0902777775684922 5.256600338807027e-20 1.5212883938902586e-12 1.5212876058194623e-12 7.880707967263278e-19
1.0943741465085532 5.294034429082271e-20 1.5378784777566693e-12 1.5378776203389872e-12 8.574176822378685e-19
1.1026131145906286 5.369066823182137e-20 1.571416814844344e-12 1.5714158008893827e-12 1.0139549611244282e-18
1.1109141095355224 5.444317491603832e-20 1.6054373386195497e-12 1.6054361411185758e-12 1.1975009743708803e-18
1.1192775983109025 5.519728055942761e-20 1.6399285486252366e-12 1.6399271361968628e-12 1.4124283735312863e-18
1.1277040513999907 5.595031333037487e-20 1.6748159828175168e-12 1.674814319049409e-12 1.6637681075871067e-18
1.1361939428280308 5.670546671787179e-20 1.7101997239895702e-12 1.7101977666888843e-12 1.957300685928042e-18
1.1447477501889525 5.746276745457512e-20 1.7460865614662305e-12 1.7460842618075899e-12 2.2996586400347977e-18
1.1533659546722406 5.82225117981676e-20 1.7824916260773294e-12 1.7824889276316917e-12 2.6984456378258446e-18
1.1707974979042381 5.975165099250317e-20 1.8569539263998993e-12 1.856950225016071e-12 3.701383828346994e-18
1.1884924949847024 6.129111507136879e-20 1.9335855828059765e-12 1.933580531247501e-12 5.051558475586411e-18
1.2064549276569216 6.285126991979102e-20 2.012772043944423e-12 2.0127651838630033e-12 6.8600814198790895e-18
1.2246888378427687 6.442249590299008e-20 2.0942703259893023e-12 2.0942610557182004e-12 9.270271101636538e-18
1.2431983285522175 6.600372759350647e-20 2.1781025017194387e-12 2.1780900353898236e-12 1.2466329615089629e-17
1.2619875648066055 6.759752123982655e-20 2.2644111229734688e-12 2.264394439170052e-12 1.6683803416414617e-17
1.3004222497298317 7.08142785351592e-20 2.4444134202922712e-12 2.444383960440636e-12 2.945985163523043e-17
1.3400274889804893 7.4084328718442e-20 2.6351751753964733e-12 2.6351241123135416e-12 5.106308293144812e-17
1.3808389325824078 7.742162988136284e-20 2.837754142527208e-12 2.8376672204917477e-12 8.692203546085e-17
1.4228933163050095 8.08555594291818e-20 3.0538778268385897e-12 3.053732443266733e-12 1.453835718571805e-16
1.466228494730424 8.444576194115022e-20 3.286615862673364e-12 3.28637681671419e-12 2.390459591730631e-16
1.5108834753276823 8.81885029975017e-20 3.536815253024021e-12 3.5364286902192094e-12 3.8656280481086813e-16
1.5568984535646726 9.2084072735359e-20 3.805522022431187e-12 3.804906573448043e-12 6.15448983144327e-16
1.6043148490894465 9.615748418839655e-20 4.094888948993025e-12 4.093922421163857e-12 9.665278291689867e-16
1.6531753430134553 1.0043547113265166e-19 4.407329023107356e-12 4.405833590531026e-12 1.4954325763301913e-15
1.7035239163302658 1.0494895376480628e-19 4.7456508367843104e-12 4.743370756262997e-12 2.280080521315314e-15
1.755405889504358 1.097796872059674e-19 5.1152748420617006e-12 5.11184731584065e-12 3.427526221049165e-15
1.8088679632656115 1.149331622386203e-19 5.518507740454129e-12 5.513426014983219e-12 5.0817254709096945e-15
1.8639582606462262 1.20413371039605e-19 5.957723326777281e-12 5.950289494106162e-12 7.433832671115926e-15
1.9207263702978936 1.2624175689636073e-19 6.436324947559117e-12 6.425591301550608e-12 1.0733646008510079e-14
1.979223391128241 1.3244821390626067e-19 6.9584154422717945e-12 6.9431123049535024e-12 1.5303137318292118e-14
2.039501978296691 1.3906056366243757e-19 7.528310957683913e-12 7.5067600831531e-12 2.1550874530813876e-14
2.1016163906111602 1.4614843578232903e-19 8.15299266151285e-12 8.123002596914403e-12 2.9990064598444917e-14
2.1656225393682647 1.5375174689715267e-19 8.838371552532553e-12 8.797117682381594e-12 4.12538701509583e-14
2.231578038680979 1.6186644304807986e-19 9.58822761530061e-12 9.532115168775891e-12 5.611244652471848e-14
2.299542257339062 1.7051186726091869e-19 1.0407955774550653e-11 1.0332465532092885e-11 7.549024245776947e-14
2.369576372248914 1.7972300621887681e-19 1.1304303738462256e-11 1.1203819790986428e-11 1.0048394747582856e-13
2.4417434235010123 1.8954018584015226e-19 1.2284875565536772e-11 1.215250114697526e-11 1.3237441856151273e-13
2.5161083711144245 2.0003475291702014e-19 1.335993145078818e-11 1.3187288263485692e-11 1.7264318730248585e-13
2.5927381535095444 2.113161504210545e-19 1.4543226973558308e-11 1.432024743757715e-11 2.2297953598115418e-13
2.6717017477616296 2.2347681215854683e-19 1.5848562440908404e-11 1.5563290853642723e-11 2.8527158726568374e-13
2.753070231689431 2.3664415852536915e-19 1.7293484624392992e-11 1.6931881987197216e-11 3.6160263719577424e-13
2.836916847834745 2.5114966019475306e-19 1.8912486648270932e-11 1.845823129987681e-11 4.542553483941183e-13
2.9233170693905177 2.6769779146486655e-19 2.077256581867283e-11 2.0206994099114995e-11 5.655717195578344e-13
2.967498994190263 2.773497676823304e-19 2.184679934761176e-11 2.121909156150884e-11 6.277077861029208e-13
3.0123486681368425 2.8761801274977857e-19 2.2998036172814663e-11 2.230225894213391e-11 6.957772306807542e-13
3.0578761833420214 3.0272575115955743e-19 2.457189749475976e-11 2.3801419256413982e-11 7.704782383457836e-13
3.1040917844459814 3.199685054565089e-19 2.6363994974081015e-11 2.5512503342881765e-11 8.514916311992488e-13
3.127460860933648 3.345691663891015e-19 2.7774562751327225e-11 2.6879804123449157e-11 8.947586278780609e-13
3.1510058709225794 3.5265219021259384e-19 2.949614305105159e-11 2.855636430515558e-11 9.397787458960102e-13
3.162844764501044 3.683095492198805e-19 3.092148117207588e-11 2.99584349078997e-11 9.630462641761742e-13
3.1747281389236908 3.8588115182477474e-19 3.2518427830276334e-11 3.1531662340812813e-11 9.86765489463522e-13
3.1986289994194426 4.327492866830476e-19 3.6742581321450746e-11 3.5706877428347046e-11 1.0357038931036851e-12
3.2227097969389145 5.387957524610359e-19 4.6090858313196413e-11 4.500337813517987e-11 1.0874801780165512e-12
3.2348180950136065 6.3739740180722825e-19 5.473052142086016e-11 5.361543048047074e-11 1.1150909403894293e-12
3.240889293275058 7.108195098356301e-19 6.114950819085305e-11 6.001985311532331e-11 1.1296550755297288e-12
3.2469718861334385 7.958375920738004e-19 6.859183333687278e-11 6.74471087267876e-11 1.1447246100851945e-12
3.2714166318528037 1.2404497094495987e-18 1.0771705024693188e-10 1.065101165936444e-10 1.2069336532875024e-12
3.2744851364798273 1.2683219880924898e-18 1.1024070402290165e-10 1.0902645791308541e-10 1.2142461098162391e-12
3.2775565192852394 1.296926748915288e-18 1.1283272327842729e-10 1.1161112986467498e-10 1.2215934137522919e-12
3.283707930232385 1.2700461974302324e-18 1.1070149178973206e-10 1.0946679706235766e-10 1.234694727374409e-12
3.2898708863219004 1.1837246972442103e-18 1.0337106624362772e-10 1.021244835311062e-10 1.2465827125215466e-12
3.29141343181113 1.1633268287913608e-18 1.0163741575997932e-10 1.0038784879166414e-10 1.249566968315198e-12
3.292184975758714 1.1532978987085835e-18 1.007848288026811e-10 9.95337678661395e-11 1.2510609365415998e-12
3.295272960557952 1.09073842358232e-18 9.540726365353025e-11 9.415039806772226e-11 1.2568655858079653e-12
3.3076538914384823 8.723544065054069e-19 7.659183092745527e-11 7.531166834389327e-11 1.2801625835619762e-12
3.310756385682612 8.274441770304373e-19 7.271690105652741e-11 7.143086980990254e-11 1.2860312466248564e-12
3.313861789986515 7.858272660925624e-19 6.912432733921653e-11 6.783240965127116e-11 1.2919176879453728e-12
3.3200813396944477 7.2788720998130435e-19 6.414787068910543e-11 6.284327547660572e-11 1.304595212499725e-12
3.345076488085796 6.281340642880624e-19 5.577349140047334e-11 5.441235544085281e-11 1.361135959620525e-12
3.3482140837626964 6.325683988410145e-19 5.621990974075486e-11 5.485111248417228e-11 1.36879725658258e-12
3.3513546224236106 6.370402491552788e-19 5.6670453833630236e-11 5.529396263167738e-11 1.3764912019528466e-12
3.3576445397418455 6.669720257935824e-19 5.944451244148771e-11 5.805192869563148e-11 1.3925837458562164e-12
3.3702598118196083 7.743200073602422e-19 6.927129325787338e-11 6.784495763455793e-11 1.4263356233154389e-12
3.382922481734668 8.008672655424431e-19 7.191542014746382e-11 7.045633696808285e-11 1.4590831793809815e-12
3.389271646505754 8.14530247590942e-19 7.327958952953847e-11 7.180391914033619e-11 1.4756703892022643e-12
3.395632727569191 8.295504304588469e-19 7.477095657504118e-11 7.327819198682296e-11 1.492764588218217e-12
3.421196662673239 9.020486779689877e-19 8.191764284318667e-11 8.035417907236281e-11 1.5634637708238584e-12
3.4276182099114902 8.89965840198316e-19 8.097206439355135e-11 7.939288718532294e-11 1.5791772082283912e-12
3.4340518103208963 8.332152294422699e-19 7.595099637087002e-11 7.43569882454687e-11 1.5940081254013225e-12
3.4469541582030403 7.519963699449016e-19 6.880510863371785e-11 6.718269772364075e-11 1.622410910077099e-12
3.472904465399547 7.313102599790769e-19 6.741614828219994e-11 6.572821229968493e-11 1.6879359825150137e-12
3.4990501388274233 6.990480563725245e-19 6.492719357306337e-11 6.31723453635549e-11 1.7548482095084445e-12
3.5253949054701885 5.793468429830061e-19 5.421454912891647e-11 5.239492271157439e-11 1.8196264173420903e-12
3.5519380250092896 4.654714791370993e-19 4.388619092294401e-11 4.2001638616202665e-11 1.884552306741339e-12
3.578680990867387 4.2273336493863508e-19 4.015678598862781e-11 3.8201095147774175e-11 1.955690840853635e-12
3.605625307711299 4.079998886497078e-19 3.904901388319154e-11 3.701850974355029e-11 2.030504139641243e-12
3.660119384959845 4.025228220018236e-19 3.9107062295031354e-11 3.691988212979268e-11 2.1871801652386755e-12
3.715437065384467 4.0072001485557774e-19 3.952031314801301e-11 3.716869370418271e-11 2.351619443830297e-12
3.8285932144167436 4.1181312385504345e-19 4.185128924485064e-11 3.9148794787364936e-11 2.702494457485706e-12
3.94519561050918 4.2670511031039003e-19 4.468541734030691e-11 4.160411377517764e-11 3.081303565129263e-12
4.06534921144712 4.429426743413411e-19 4.779856007081256e-11 4.4311851801216747e-11 3.486708269595815e-12
4.189162171576248 4.597373718395805e-19 5.1121832731564606e-11 4.7203261524114837e-11 3.918571207449772e-12
4.316745939156006 4.76682819134693e-19 5.462046854835678e-11 5.0246221447058697e-11 4.3742471012980825e-12
4.448215356677963 4.935042655812122e-19 5.827015173195483e-11 5.342392714973595e-11 4.846224582218867e-12
4.58368876423945 5.100799252138117e-19 6.206157398331859e-11 5.672741842956981e-11 5.334155553748777e-12
4.723288106065518 5.263705963124783e-19 6.599415783932223e-11 6.015391397223103e-11 5.840243867091204e-12
4.867139040275056 5.422661270749266e-19 7.005766573580904e-11 6.370852406812528e-11 6.34914166768377e-12
4.940699165968905 5.502386266682598e-19 7.216205934911094e-11 6.555601901954832e-11 6.606040329562625e-12
5.015371051989984 5.579315710789049e-19 7.427684342328314e-11 6.741323764019375e-11 6.863605783089382e-12
5.091171501069577 5.659775733458699e-19 7.648678082698044e-11 6.935902372122796e-11 7.127757105752474e-12
5.129500256944802 5.698799621434747e-19 7.759395269739248e-11 7.033424790299963e-11 7.259704794392853e-12
5.168117569889187 5.737624661505984e-19 7.871073222136033e-11 7.131770996779613e-11 7.393022253564208e-12
5.20702561229733 5.781012057841748e-19 7.990298835677928e-11 7.23633189668345e-11 7.53966938994479e-12
5.246226572918644 5.823695548902057e-19 8.109893270995927e-11 7.341235253948471e-11 7.686580170474562e-12
5.265937586045735 5.844770585876448e-19 8.16982228670712e-11 7.393811327986035e-11 7.760109587210842e-12
5.285722656980489 5.865666486141395e-19 8.229835809916824e-11 7.446468309746664e-11 7.833675001701616e-12
5.305582063971359 5.886382336227056e-19 8.289931398879394e-11 7.499204765050027e-11 7.90726633829366e-12
5.3255160863122235 5.907816329152383e-19 8.351377569480276e-11 7.55322299359319e-11 7.98154575887085e-12
5.365609099470188 5.957080827645235e-19 8.484416027311856e-11 7.670884076850841e-11 8.135319504610152e-12
5.406003951863644 6.005947955428635e-19 8.618414080721254e-11 7.78948350192569e-11 8.28930578795567e-12
5.446702915881641 6.054433943786309e-19 8.753397811981497e-11 7.909055444120375e-11 8.44342367861123e-12
5.487708281020852 6.104232456043468e-19 8.891837423564611e-11 8.03200292641099e-11 8.598344971536204e-12
5.529022354014368 6.16854057073118e-19 9.053160175462812e-11 8.17717627089424e-11 8.75983904568573e-12
5.570647458961463 6.233533658641906e-19 9.217420843249463e-11 8.325270194573884e-11 8.921506486755768e-12
5.612585937458331 6.299327358896455e-19 9.384834425748044e-11 8.476507917317622e-11 9.083265084304193e-12
5.654840148729818 6.368538112334789e-19 9.55937542573177e-11 8.634780563063637e-11 9.245948626681355e-12
5.67608639626678 6.414549919703322e-19 9.664616367829637e-11 8.731491173097102e-11 9.331251947325343e-12
5.686739436050992 6.437870539240136e-19 9.717957640115112e-11 8.780565273975893e-11 9.373923661392157e-12
5.6974124697621304 6.461409576248331e-19 9.771795413456522e-11 8.830134713295773e-11 9.4166070016075e-12
5.718818669136295 6.509169751331948e-19 9.881010410985114e-11 8.930810079556457e-11 9.502003314286575e-12
5.740305295436557 6.560968921983494e-19 9.997062434392697e-11 9.038247564458428e-11 9.588148699342702e-12
5.7835210386641895 6.693197120151348e-19 1.0275320296000038e-10 9.298712240191615e-11 9.7660805580842e-12
5.827062130521658 6.839942777149089e-19 1.0579656084857408e-10 9.585054970981453e-11 9.94601113875953e-12
5.8489554468988025 6.943206214668759e-19 1.0779728192047774e-10 9.775353402564133e-11 1.0043747894836429e-11
5.870931020387893 7.051641437536634e-19 1.0989214029491047e-10 9.975047499281313e-11 1.0141665302097284e-11
5.892989160043636 7.165670833564222e-19 1.1208872511109959e-10 1.0184897247308667e-10 1.0239752638012918e-11
5.915130176081913 7.294116450295164e-19 1.1452661700231005e-10 1.0418499913069282e-10 1.034161787161719e-11
5.95966208400165 7.653958000279833e-19 1.2108131906788454e-10 1.1050434041626576e-10 1.0576978651618786e-11
6.004529249263818 8.165303929080274e-19 1.3014298164850638e-10 1.1929930819645943e-10 1.0843673452046964e-11
6.027089341400364 8.519520568593603e-19 1.36298858302578e-10 1.2529947256649488e-10 1.0999385736083156e-11
6.049734195844842 8.932495623315481e-19 1.4344272891140672e-10 1.3227804781193218e-10 1.1164681099474549e-11
6.095279466722835 1.012036634265312e-18 1.637416978667053e-10 1.5216526023314658e-10 1.1576437633558766e-11
6.141167624020661 1.1922801965431794e-18 1.9435634139685374e-10 1.8223874238892282e-10 1.2117599007930962e-11
6.164241091010745 1.3069395213648739e-18 2.1384767864932634e-10 2.0138719362908325e-10 1.2460485020243092e-11
6.187401249150058 1.4352265137362131e-18 2.357209390001974e-10 2.2290899681557498e-10 1.2811942184622403e-11
6.1990139391386085 1.497403020285043e-18 2.4639435329637167e-10 2.3340369431945246e-10 1.2990658976919188e-11
6.204828454712694 1.529960896478244e-18 2.519878163727668e-10 2.389069571306808e-10 1.3080859242085956e-11
6.210648424152782 1.5534173310356354e-18 2.5609112286174193e-10 2.429341248103869e-10 1.3156998051355043e-11
6.233982942956859 1.63154396891202e-18 2.699813874657525e-10 2.5656194459380926e-10 1.3419442871943302e-11
6.239830258556775 1.6406255999162728e-18 2.7173882471125485e-10 2.582852395466089e-10 1.3453585164645919e-11
6.245683058788269 1.6400676509894661e-18 2.719012082920967e-10 2.584134498759517e-10 1.3487758416144884e-11
6.257405133728602 1.634803750716871e-18 2.7153719827784953e-10 2.579909532145333e-10 1.3546245063316231e-11
6.269149208991335 1.6154952466715356e-18 2.6883370904602963e-10 2.5527240810265015e-10 1.3561300943379462e-11
6.280915325867298 1.5717639122769285e-18 2.6204729729738335e-10 2.4852455766493994e-10 1.3522739632443331e-11
6.304513850009849 1.4658556616189524e-18 2.453083012054945e-10 2.319110563852389e-10 1.3397244820255533e-11
6.32820103803542 1.337646192150692e-18 2.246937323388797e-10 2.114734330040433e-10 1.3220299334836512e-11
6.3519772230701035 1.220949868137199e-18 2.0586200461686314e-10 1.9280212709859664e-10 1.3059877518266483e-11
6.375842739491607 1.1223641535476698e-18 1.899506645405301e-10 1.7703418552980754e-10 1.2916479010722517e-11
6.399797922933955 1.0444646243140204e-18 1.774309710264706e-10 1.6459708259943893e-10 1.2833888427031697e-11
6.42384311029221 9.792959406570298e-19 1.6698532760797235e-10 1.5422183366921277e-10 1.2763493938759622e-11
6.447978639727206 9.320391539626688e-19 1.5952442215007888e-10 1.4678409337445113e-10 1.2740328775627724e-11
6.472204850670314 8.92413994724678e-19 1.5331620469795965e-10 1.4058971403296744e-10 1.2726490664992257e-11
6.496522083828205 8.665316868001142e-19 1.4942896917173897e-10 1.366782177190642e-10 1.2750751452674789e-11
