Dust emission spectrum from A.P. Jones, M. Kohler, N. Ysard, M. Bocchio, and L. Verstraete (2017), A&A, 602A, 46J 
inside the DustPedia framework.

lambda    nu*dP/dnu     j_nu    j_nu(carb.) j_nu(sil)
 (um)   (erg s-1 H-1) (Jy cm2 sr-1 H-1)
0.9927057738263894 4.332428340113236e-20 1.1416194753215483e-12 1.1416193893808742e-12 8.59406742906165e-20
1.0001793341362166 4.405076049138999e-20 1.1695013308490595e-12 1.16950122745337e-12 1.0339568939706326e-19
1.0077091589558085 4.478037983422301e-20 1.1978223489850841e-12 1.197822224756048e-12 1.2422903608793016e-19
1.0114953028030835 4.514633937868252e-20 1.2121485473434087e-12 1.21214841124138e-12 1.3610202901765928e-19
1.0152956718711033 4.551305093742168e-20 1.226585755889868e-12 1.2265856068302161e-12 1.4905965221344258e-19
1.0229392996569957 4.6248329790595576e-20 1.255785170340384e-12 1.2557849917249932e-12 1.786153909974878e-19
1.0267826658714554 4.661606407040349e-20 1.2705260189661005e-12 1.2705258235343115e-12 1.9543178887607492e-19
1.0306404723013447 4.698449171769516e-20 1.2853788772609054e-12 1.2853786635012609e-12 2.13759644395438e-19
1.03451277320114 4.7353603570681453e-20 1.3003441985016743e-12 1.3003439647738243e-12 2.3372785025103637e-19
1.0383996230291617 4.772339083930017e-20 1.3154224464135511e-12 1.3154221909378987e-12 2.554756528570916e-19
1.0403485208654093 4.790853511143439e-20 1.3230040657470757e-12 1.3230037986836373e-12 2.6706343852922996e-19
1.0423010764483396 4.8093845114204253e-20 1.3306140955965744e-12 1.3306138164431456e-12 2.7915342877935973e-19
1.0462171883269815 4.846495837569125e-20 1.3459196319582936e-12 1.3459193270347785e-12 3.0492351488110124e-19
1.0471985131304309 4.8557838755725886e-20 1.3497638689747598e-12 1.349763557261566e-12 3.1171319372273753e-19
1.048180758391296 4.865075972897311e-20 1.3536152628769687e-12 1.353614944229577e-12 3.186473920270974e-19
1.0501480137395462 4.883672300256938e-20 1.361339553152283e-12 1.3613392201911878e-12 3.329610955523723e-19
1.0521189612883777 4.9022847307541774e-20 1.369092566899147e-12 1.369092219010461e-12 3.4788868643034537e-19
1.0531058218030118 4.911584745240349e-20 1.3729764514997954e-12 1.3729760959088138e-12 3.555909817585918e-19
1.0540936079674168 4.920848745114303e-20 1.37685634063685e-12 1.376855977178891e-12 3.6345795876133136e-19
1.058054026499678 4.957942874184199e-20 1.3924473910747037e-12 1.3924469944521946e-12 3.9662250931689244e-19
1.0590464539527713 4.967225889942699e-20 1.396363068420836e-12 1.3963626630658558e-12 4.053549802070847e-19
1.06003981227728 4.9765126801310634e-20 1.4002859283520214e-12 1.4002855140809398e-12 4.1427108181746913e-19
1.0620293250338977 4.9950975472351605e-20 1.4081532297790425e-12 1.4081527971101317e-12 4.3266891071974423e-19
1.0660195594769086 5.032312182122522e-20 1.4239743986200109e-12 1.423973926785873e-12 4.718341379422095e-19
1.070024785945596 5.069586241280353e-20 1.4399114535839491e-12 1.4399109392104819e-12 5.1437346675102515e-19
1.0740450607676866 5.106919232555514e-20 1.455964965246249e-12 1.4559644046844606e-12 5.605617882434924e-19
1.07808044048254 5.144310710032066e-20 1.4721355192494233e-12 1.4721349085544136e-12 6.106950100599153e-19
1.0861967418109137 5.219210848939473e-20 1.5048138194266942e-12 1.5048130953326929e-12 7.240940011546716e-19
1.0902777775684922 5.256589895219057e-20 1.5212853714597627e-12 1.5212845833889659e-12 7.880707967263278e-19
1.0943741465085532 5.29402391851166e-20 1.5378754245123907e-12 1.5378745670947084e-12 8.574176822378688e-19
1.1026131145906286 5.3690561793411637e-20 1.5714136996082643e-12 1.571412685653303e-12 1.0139549611244282e-18
1.1109141095355224 5.44430671545826e-20 1.605434160916101e-12 1.6054329634151272e-12 1.1975009743708803e-18
1.1192775983109025 5.51971714862824e-20 1.6399253080278213e-12 1.6399238955994476e-12 1.4124283735312863e-18
1.1277040513999907 5.595020296302977e-20 1.6748126790827817e-12 1.6748110153146739e-12 1.6637681075871067e-18
1.1361939428280308 5.670535506751586e-20 1.7101963566879853e-12 1.7101943993872992e-12 1.957300685928042e-18
1.1447477501889525 5.74626545328259e-20 1.7460831301809383e-12 1.746080830522298e-12 2.2996586400347977e-18
1.1533659546722406 5.82223976163624e-20 1.7824881303828747e-12 1.7824854319372362e-12 2.6984456378258446e-18
1.1707974979042381 5.97515343204813e-20 1.856950300482197e-12 1.8569465990983684e-12 3.701383828346994e-18
1.1884924949847024 6.129099595985729e-20 1.933581825127541e-12 1.933576773569065e-12 5.051558475586411e-18
1.2064549276569216 6.28511484002552e-20 2.0127681523583847e-12 2.0127612922769647e-12 6.8600814198790895e-18
1.2246888378427687 6.442237203340845e-20 2.0942662991911244e-12 2.0942570289200234e-12 9.270271101636533e-18
1.2431983285522175 6.600360143737016e-20 2.178098338606141e-12 2.178085872276526e-12 1.2466329615089629e-17
1.2619875648066055 6.759739286146646e-20 2.26440682249941e-12 2.264390138695993e-12 1.6683803416414617e-17
1.3004222497298317 7.08141459425046e-20 2.444408843372602e-12 2.4443793835209666e-12 2.945985163523042e-17
1.3400274889804893 7.408419222234747e-20 2.635170320238492e-12 2.6351192571555604e-12 5.106308293144812e-17
1.3808389325824078 7.742148980701243e-20 2.8377490083474083e-12 2.8376620863119475e-12 8.692203546085e-17
1.4228933163050095 8.085541608377927e-20 3.0538724127477163e-12 3.0537270291758586e-12 1.453835718571805e-16
1.466228494730424 8.444561555170295e-20 3.286610165218945e-12 3.2863711192597714e-12 2.390459591730631e-16
1.5108834753276823 8.818835385088399e-20 3.536809271472973e-12 3.536422708668162e-12 3.8656280481086813e-16
1.5568984535646726 9.208392116675167e-20 3.805515758615351e-12 3.804900309632208e-12 6.15448983144327e-16
1.6043148490894465 9.615733052810381e-20 4.094882405333527e-12 4.093915877504357e-12 9.665278291689867e-16
1.6531753430134553 1.0043531570411703e-19 4.407322202561946e-12 4.405826769985616e-12 1.4954325763301913e-15
1.7035239163302658 1.0494879686950966e-19 4.745643742189569e-12 4.743363661668254e-12 2.280080521315314e-15
1.755405889504358 1.0977952902019792e-19 5.115267471265631e-12 5.111839945044581e-12 3.427526221049165e-15
1.8088679632656115 1.149330029692742e-19 5.5185000931476245e-12 5.513418367676715e-12 5.0817254709096945e-15
1.8639582606462262 1.204132109141858e-19 5.957715404210734e-12 5.9502815715396156e-12 7.433832671115926e-15
1.9207263702978936 1.2624159612699192e-19 6.436316750874242e-12 6.42558310486573e-12 1.0733646008510079e-14
1.979223391128241 1.3244805266959977e-19 6.95840697140127e-12 6.943103834082978e-12 1.530313731829211e-14
2.039501978296691 1.3906040209277286e-19 7.528302210799498e-12 7.506751336268684e-12 2.155087453081387e-14
2.1016163906111602 1.4614827389578495e-19 8.152983630558815e-12 8.12299356596037e-12 2.999006459844491e-14
2.1656225393682647 1.53751584641304e-19 8.838362225305342e-12 8.797108355154385e-12 4.1253870150958277e-14
2.231578038680979 1.6186628036544936e-19 9.588217978725785e-12 9.532105532201066e-12 5.6112446524718425e-14
2.299542257339062 1.7051170405293606e-19 1.0407945812420202e-11 1.0332455569962434e-11 7.549024245776938e-14
2.369576372248914 1.7972284229628395e-19 1.1304293427980484e-11 1.1203809480504653e-11 1.0048394747582842e-13
2.4417434235010123 1.895400209066148e-19 1.2284864875518846e-11 1.215249045695733e-11 1.3237441856151247e-13
2.5161083711144245 2.0003458649296896e-19 1.3359920335650018e-11 1.3187277148347533e-11 1.726431873024854e-13
2.5927381535095444 2.1131598172706784e-19 1.4543215363679308e-11 1.432023582769815e-11 2.2297953598115335e-13
2.6717017477616296 2.2347664005698675e-19 1.5848550235783884e-11 1.55632786485182e-11 2.852715872656824e-13
2.753070231689431 2.36643981339316e-19 1.7293471675988498e-11 1.6931869038792728e-11 3.616026371957721e-13
2.836916847834745 2.5114947502571016e-19 1.8912472704365735e-11 1.845821735597161e-11 4.5425534839411494e-13
2.9233170693905177 2.676975927239919e-19 2.077255039696211e-11 2.0206978677404283e-11 5.65571719557829e-13
2.967498994190263 2.7734955740386807e-19 2.1846782784009014e-11 2.1219074997906097e-11 6.277077861029142e-13
3.0123486681368425 2.876177889932303e-19 2.299801828116336e-11 2.230224105048262e-11 6.957772306807456e-13
3.0578761833420214 3.0272549722834487e-19 2.4571876883458262e-11 2.3801398645112506e-11 7.704782383457724e-13
3.1040917844459814 3.1996821263012653e-19 2.6363970846477383e-11 2.551247921527815e-11 8.514916311992354e-13
3.127460860933648 3.345688324134365e-19 2.7774535026034526e-11 2.687977639815648e-11 8.947586278780456e-13
3.1510058709225794 3.526518014036539e-19 2.9496110530725807e-11 2.8556331784829823e-11 9.397787458959934e-13
3.162844764501044 3.6830910937476494e-19 3.092144424481595e-11 2.9958397980639785e-11 9.630462641761562e-13
3.1747281389236908 3.858806526207743e-19 3.251838576206652e-11 3.153162027260302e-11 9.867654894635029e-13
3.1986289994194426 4.3274862188993776e-19 3.6742524877186935e-11 3.5706820984083267e-11 1.0357038931036635e-12
3.2227097969389145 5.38794697340023e-19 4.609076805370032e-11 4.50032878756838e-11 1.087480178016527e-12
3.2348180950136065 6.373959765263138e-19 5.4730399038234516e-11 5.361530809784513e-11 1.115090940389403e-12
3.240889293275058 7.108178078172713e-19 6.114936177170708e-11 6.00197066961774e-11 1.1296550755297014e-12
3.2469718861334385 7.958355699191409e-19 6.859165905094215e-11 6.7446934440857e-11 1.1447246100851658e-12
3.2714166318528037 1.2404459795806308e-18 1.0771672635594303e-10 1.0650979270265551e-10 1.206933653287467e-12
3.2744851364798273 1.2683181514849493e-18 1.1024037055054977e-10 1.090261244407336e-10 1.214246109816203e-12
3.2775565192852394 1.296922802503197e-18 1.1283237994028285e-10 1.1161078652653059e-10 1.2215934137522553e-12
3.283707930232385 1.2700423566761558e-18 1.1070115701670828e-10 1.0946646228933391e-10 1.2346947273743718e-12
3.2898708863219004 1.1837211914651536e-18 1.0337076009463888e-10 1.0212417738211736e-10 1.2465827125215092e-12
3.29141343181113 1.1633234020063813e-18 1.0163711636899041e-10 1.0038754940067524e-10 1.2495669683151604e-12
3.292184975758714 1.1532945107382911e-18 1.0078453273346403e-10 9.953347179692249e-11 1.2510609365415625e-12
3.295272960557952 1.090735280615703e-18 9.54069887371633e-11 9.41501231513554e-11 1.2568655858079275e-12
3.3076538914384823 8.723521122578414e-19 7.659162949484905e-11 7.531146691128711e-11 1.2801625835619387e-12
3.310756385682612 8.274420555073046e-19 7.271671461423679e-11 7.143068336761196e-11 1.2860312466248186e-12
3.313861789986515 7.858253039303666e-19 6.912415474003629e-11 6.783223705209098e-11 1.2919176879453353e-12
3.3200813396944477 7.278854713103705e-19 6.414771746201654e-11 6.284312224951685e-11 1.3045952124996866e-12
3.345076488085796 6.2813272434403e-19 5.577337242371152e-11 5.441223646409103e-11 1.3611359596204838e-12
3.3482140837626964 6.325670439571357e-19 5.621978932460775e-11 5.4850992068025215e-11 1.368797256582538e-12
3.3513546224236106 6.370388791663652e-19 5.667033196080732e-11 5.529384075885449e-11 1.376491201952804e-12
3.3576445397418455 6.669705453712478e-19 5.944438049744734e-11 5.805179675159116e-11 1.3925837458561723e-12
3.3702598118196083 7.743181195744156e-19 6.92711243750286e-11 6.78447887517132e-11 1.4263356233153914e-12
3.382922481734668 8.008652850292847e-19 7.191524230346642e-11 7.04561591240855e-11 1.4590831793809308e-12
3.389271646505754 8.145282190388263e-19 7.327940702991148e-11 7.180373664070925e-11 1.4756703892022116e-12
3.395632727569191 8.295483501482563e-19 7.477076906767923e-11 7.327800447946108e-11 1.4927645882181634e-12
3.421196662673239 9.020463491537952e-19 8.191743135676042e-11 8.035396758593664e-11 1.5634637708237972e-12
3.4276182099114902 8.899635615302747e-19 8.097185707272277e-11 7.939267986449446e-11 1.5791772082283288e-12
3.4340518103208963 8.332131703954769e-19 7.595080868028305e-11 7.435680055488177e-11 1.5940081254012589e-12
3.4469541582030403 7.519946236680644e-19 6.880494885533023e-11 6.718253794525318e-11 1.6224109100770344e-12
3.472904465399547 7.313086014037786e-19 6.741599538572856e-11 6.57280594032136e-11 1.6879359825149428e-12
3.4990501388274233 6.990465319024136e-19 6.492705198112977e-11 6.31722037716214e-11 1.7548482095083665e-12
3.5253949054701885 5.793457956115541e-19 5.421445111721289e-11 5.239482469987088e-11 1.8196264173420083e-12
3.5519380250092896 4.654708801021941e-19 4.388613444395143e-11 4.2001582137210186e-11 1.884552306741252e-12
3.578680990867387 4.2273294366814056e-19 4.015674597080453e-11 3.8201055129950995e-11 1.9556908408535402e-12
3.605625307711299 4.079995392910645e-19 3.904898044663705e-11 3.7018476306995894e-11 2.0305041396411407e-12
3.660119384959845 4.025225251290878e-19 3.910703345239204e-11 3.691985328715349e-11 2.1871801652385523e-12
3.715437065384467 4.007197551465933e-19 3.9520287534666995e-11 3.716866809083685e-11 2.35161944383015e-12
3.8285932144167436 4.1181288306197016e-19 4.1851264773798184e-11 3.9148770316312686e-11 2.7024944574854953e-12
3.94519561050918 4.2670487320280902e-19 4.4685392509924153e-11 4.160408894479519e-11 3.0813035651289636e-12
4.06534921144712 4.429424346604805e-19 4.779853420651753e-11 4.431182593692215e-11 3.486708269595394e-12
4.189162171576248 4.597371259562203e-19 5.1121805389849985e-11 4.72032341824008e-11 3.918571207449187e-12
4.316745939156006 4.766825643981809e-19 5.4620439359497666e-11 5.0246192258200396e-11 4.374247101297274e-12
4.448215356677963 4.935039996679544e-19 5.827012033444325e-11 5.3423895752225507e-11 4.846224582217761e-12
4.58368876423945 5.100796457582252e-19 6.206153998187545e-11 5.6727384428128176e-11 5.334155553747276e-12
4.723288106065518 5.26370300634165e-19 6.599412076840409e-11 6.015387690131494e-11 5.840243867089179e-12
4.867139040275056 5.422658118655635e-19 7.005762501257172e-11 6.370848334489064e-11 6.349141667681063e-12
4.940699165968905 5.502382996681917e-19 7.216201646408403e-11 6.555597613452452e-11 6.6060403295595e-12
5.015371051989984 5.579312318611427e-19 7.427679826357913e-11 6.741319248049334e-11 6.863605783085785e-12
5.091171501069577 5.659772192179878e-19 7.64867329697808e-11 6.935897586403248e-11 7.127757105748333e-12
5.129500256944802 5.69879600359891e-19 7.759390343751294e-11 7.033419864312452e-11 7.2597047943884126e-12
5.168117569889187 5.737620963840413e-19 7.871068149549699e-11 7.131765924193754e-11 7.39302225355945e-12
5.20702561229733 5.781008262232174e-19 7.990293589528213e-11 7.236326650534244e-11 7.539669389939688e-12
5.246226572918644 5.82369165282623e-19 8.109887845444597e-11 7.341229828397686e-11 7.686580170469098e-12
5.265937586045735 5.844766638596324e-19 8.169816769197639e-11 7.39380581047712e-11 7.760109587205184e-12
5.285722656980489 5.865662486995585e-19 8.22983019890681e-11 7.446462698737236e-11 7.833675001695764e-12
5.305582063971359 5.886378284543423e-19 8.289925692797553e-11 7.499199058968794e-11 7.907266338287601e-12
5.3255160863122235 5.907812221029468e-19 8.351371762176248e-11 7.553217186289793e-11 7.981545758864581e-12
5.365609099470188 5.95707657900977e-19 8.484409976161657e-11 7.670878025701315e-11 8.135319504603434e-12
5.406003951863644 6.005943560907149e-19 8.618407774671632e-11 7.789477195876783e-11 8.289305787948477e-12
5.446702915881641 6.054429397745387e-19 8.753391239392708e-11 7.909048871532353e-11 8.443423678603533e-12
5.487708281020852 6.104227746272898e-19 8.891830562994587e-11 8.03199606584179e-11 8.598344971527964e-12
5.529022354014368 6.168535633520325e-19 9.053152929444052e-11 8.177169024876365e-11 8.759839045676894e-12
5.570647458961463 6.23352848055628e-19 9.217413186501783e-11 8.325262537827152e-11 8.921506486746295e-12
5.612585937458331 6.299321925534397e-19 9.384826331041992e-11 8.476499822612588e-11 9.083265084294046e-12
5.654840148729818 6.368532398358928e-19 9.559366848874812e-11 8.634771986207762e-11 9.245948626670483e-12
5.67608639626678 6.414544014700362e-19 9.664607470932903e-11 8.731482276201495e-11 9.331251947314072e-12
5.686739436050992 6.437864535768941e-19 9.717948577882746e-11 8.780556211744678e-11 9.373923661380681e-12
5.6974124697621304 6.461403472276252e-19 9.771786182225213e-11 8.830125482065631e-11 9.416607001595818e-12
5.718818669136295 6.50916344006431e-19 9.881000830392868e-11 8.930800498965422e-11 9.502003314274466e-12
5.740305295436557 6.560962382225415e-19 9.997052469649592e-11 9.03823759971658e-11 9.588148699330145e-12
5.7835210386641895 6.693189987773671e-19 1.0275309346454734e-10 9.298701290647668e-11 9.766080558070651e-12
5.827062130521658 6.8399349620673e-19 1.0579643996908673e-10 9.585042883034185e-11 9.9460111387449e-12
5.8489554468988025 6.943197920781444e-19 1.0779715315309257e-10 9.77534052582714e-11 1.0043747894821158e-11
5.870931020387893 7.05163262981756e-19 1.0989200303621559e-10 9.975033773413424e-11 1.0141665302081356e-11
5.892989160043636 7.1656614741672e-19 1.1208857870709859e-10 1.018488260691023e-10 1.0239752637996303e-11
5.915130176081913 7.294106463495107e-19 1.1452646019724216e-10 1.0418484232564233e-10 1.0341617871599833e-11
5.95966208400165 7.653946259512371e-19 1.2108113333553388e-10 1.1050415468393428e-10 1.0576978651599631e-11
6.004529249263818 8.165289660412831e-19 1.3014275422685235e-10 1.1929908077482683e-10 1.0843673452025527e-11
6.027089341400364 8.519504542831044e-19 1.362986019157165e-10 1.2529921617965622e-10 1.0999385736060262e-11
6.049734195844842 8.932477521119172e-19 1.4344243821678478e-10 1.3227775711733474e-10 1.1164681099450025e-11
6.095279466722835 1.0120342242800766e-18 1.6374130794497628e-10 1.521648703114465e-10 1.1576437633529815e-11
6.141167624020661 1.1922768635630117e-18 1.9435579808007874e-10 1.822381990721832e-10 1.2117599007895577e-11
6.164241091010745 1.3069355989793122e-18 2.138470368498908e-10 2.0138655182968733e-10 1.2460485020203475e-11
6.187401249150058 1.4352219199230724e-18 2.357201845144512e-10 2.2290824232987313e-10 1.2811942184578103e-11
6.1990139391386085 1.4973980986297816e-18 2.463935434488897e-10 2.3340288447201736e-10 1.2990658976872483e-11
6.204828454712694 1.529955802127325e-18 2.5198697732232636e-10 2.389061180802883e-10 1.3080859242037994e-11
6.210648424152782 1.5534121106171956e-18 2.560902622412292e-10 2.429332641899231e-10 1.3156998051306036e-11
6.233982942956859 1.6315383201811826e-18 2.6998045273630723e-10 2.5656100986441666e-10 1.3419442871890592e-11
6.239830258556775 1.640619896428432e-18 2.71737880035588e-10 2.582842948709953e-10 1.3453585164592697e-11
6.245683058788269 1.6400619427445263e-18 2.719002619416852e-10 2.58412503525594e-10 1.348775841609115e-11
6.257405133728602 1.6347980542176552e-18 2.7153625210223896e-10 2.5799000703897734e-10 1.3546245063261586e-11
6.269149208991335 1.6154896343825325e-18 2.6883277510798677e-10 2.5527147416466224e-10 1.3561300943324527e-11
6.280915325867298 1.5717585111932687e-18 2.620463968190325e-10 2.485236571866436e-10 1.3522739632388865e-11
6.304513850009849 1.4658507813801486e-18 2.453074845063324e-10 2.3191023968612964e-10 1.3397244820202715e-11
6.32820103803542 1.3376419575066804e-18 2.246930210162791e-10 2.1147272168149292e-10 1.3220299334786227e-11
6.3519772230701035 1.2209462255335423e-18 2.058613904444795e-10 1.9280151292626094e-10 1.3059877518218597e-11
6.375842739491607 1.1223610089938732e-18 1.89950132351328e-10 1.7703365334065124e-10 1.2916479010676731e-11
6.399797922933955 1.044461878909594e-18 1.774305046442094e-10 1.645966162172221e-10 1.2833888426987333e-11
6.42384311029221 9.79293527083063e-19 1.6698491605573072e-10 1.542214221170143e-10 1.2763493938716457e-11
6.447978639727206 9.320369821726826e-19 1.5952405043442606e-10 1.4678372165884094e-10 1.2740328775585121e-11
6.472204850670314 8.924120243275739e-19 1.5331586618488438e-10 1.4058937551993436e-10 1.2726490664950058e-11
6.496522083828205 8.6652984725366465e-19 1.4942865195133737e-10 1.3667790049870498e-10 1.2750751452632427e-11
6.520930681187647 8.445429483745945e-19 1.4618430816015073e-10 1.3340367848279533e-10 1.2780629677355406e-11
6.57002334288761 8.209384699275846e-19 1.4316832805242234e-10 1.302757628473964e-10 1.2892565205025959e-11
