Dust emission spectrum from A.P. Jones, M. Kohler, N. Ysard, M. Bocchio, and L. Verstraete (2017), A&A, 602A, 46J 
inside the DustPedia framework.

lambda    nu*dP/dnu     j_nu    j_nu(carb.) j_nu(sil)
 (um)   (erg s-1 H-1) (Jy cm2 sr-1 H-1)
0.9927057738263894 7.956293519195594e-21 2.0965285331530503e-13 2.0965283973628364e-13 1.357902140999549e-20
1.0001793341362166 8.089950254530775e-21 2.1477966517798666e-13 2.1477964883829134e-13 1.633969539797383e-20
1.0077091589558085 8.224157986368194e-21 2.1998652700411854e-13 2.1998650736874992e-13 1.9635368622364544e-20
1.0114953028030835 8.291462707074104e-21 2.2262014183319644e-13 2.2262012031931907e-13 2.1513877394291808e-20
1.0152956718711033 8.358898363042682e-21 2.2527396990231558e-13 2.2527394633810255e-13 2.35642130624311e-20
1.0229392996569957 8.494088110850202e-21 2.3064075899535075e-13 2.3064073075364476e-13 2.824170595660679e-20
1.0267826658714554 8.561688844306011e-21 2.3334978316817886e-13 2.3334975226468144e-13 3.090349741709534e-20
1.0306404723013447 8.629408827232567e-21 2.3607917047224503e-13 2.3607913666739136e-13 3.3804853635423634e-20
1.03451277320114 8.697246145695973e-21 2.388289953818621e-13 2.3882895841562463e-13 3.69662374478408e-20
1.0383996230291617 8.765198951766098e-21 2.4159933411392806e-13 2.4159929370416937e-13 4.040975866807644e-20
1.0403485208654093 8.799218103630354e-21 2.4299222047638367e-13 2.4299217823167293e-13 4.22447107613268e-20
1.0423010764483396 8.833265465169406e-21 2.4439026470415167e-13 2.443902205448538e-13 4.41592978890341e-20
1.0462171883269815 8.901443974932067e-21 2.472018670843861e-13 2.472018188437472e-13 4.8240638874109025e-20
1.0471985131304309 8.918505908029725e-21 2.4790800720052565e-13 2.479079578844934e-13 4.931603224796144e-20
1.048180758391296 8.93557471311995e-21 2.486154457122176e-13 2.486153952978701e-13 5.041434748373204e-20
1.0501480137395462 8.969732841012435e-21 2.500342231610584e-13 2.5003417047944834e-13 5.2681610079086e-20
1.0521189612883777 9.003918164953456e-21 2.514582099907841e-13 2.5145815494453453e-13 5.504624950864068e-20
1.0531058218030118 9.020998414101395e-21 2.5217152984239356e-13 2.5217147357599113e-13 5.626640241275024e-20
1.0540936079674168 9.038011509029178e-21 2.5288408763449194e-13 2.528840301218135e-13 5.751267843290318e-20
1.058054026499678 9.106127744438589e-21 2.5574727547910437e-13 2.557472127121508e-13 6.276695365589326e-20
1.0590464539527713 9.123172658122864e-21 2.5646631840164757e-13 2.564662542511032e-13 6.415054436488433e-20
1.06003981227728 9.140223871164317e-21 2.5718666245700305e-13 2.571865968937311e-13 6.556327185036238e-20
1.0620293250338977 9.174345112616223e-21 2.5863125953543886e-13 2.586311910569599e-13 6.847847897191761e-20
1.0660195594769086 9.242662295420401e-21 2.615361290685658e-13 2.615360543836449e-13 7.468492084974214e-20
1.070024785945596 9.311078054380214e-21 2.6446197574360967e-13 2.644618943167488e-13 8.142686078751576e-20
1.0740450607676866 9.379591232239241e-21 2.6740889371061303e-13 2.674088049626078e-13 8.874800523513477e-20
1.07808044048254 9.44820075448313e-21 2.703769796903872e-13 2.703768829949778e-13 9.669540940227476e-20
1.0861967418109137 9.585600329903925e-21 2.763740393218935e-13 2.7637392464647243e-13 1.1467542093682896e-19
1.0902777775684922 9.654150788464635e-21 2.7939631322039716e-13 2.793961883992566e-13 1.2482114058545552e-19
1.0943741465085532 9.722790060095938e-21 2.8243997611779883e-13 2.82439840297954e-13 1.358198447215403e-19
1.1026131145906286 9.86033265978488e-21 2.8859191088185083e-13 2.885917502297989e-13 1.6065205195403888e-19
1.1109141095355224 9.998224293706465e-21 2.948307593332667e-13 2.9483056955710355e-13 1.8977616322622806e-19
1.1192775983109025 1.0136355140951486e-20 3.0115429612068736e-13 3.011540722322354e-13 2.238884519826991e-19
1.1277040513999907 1.0274230320716186e-20 3.0754868253690465e-13 3.075484187466281e-13 2.637902766101395e-19
1.1361939428280308 1.0412436359581866e-20 3.1403225859709835e-13 3.14031948194422e-13 3.1040267639439874e-19
1.1447477501889525 1.0550975896719507e-20 3.206061601223704e-13 3.2060579533957273e-13 3.647827975895052e-19
1.1533659546722406 1.0689901854878171e-20 3.2727307619367497e-13 3.2727264805070284e-13 4.281429721469166e-19
1.1707974979042381 1.096933650567248e-20 3.409035927185671e-13 3.409030051605065e-13 5.875580605801007e-19
1.1884924949847024 1.1250388230916006e-20 3.549223808204311e-13 3.54921578537566e-13 8.02282865062112e-19
1.2064549276569216 1.1534956464715518e-20 3.693996625672728e-13 3.693985725068065e-13 1.0900604662575478e-18
1.2246888378427687 1.1821239962111455e-20 3.8428924123537214e-13 3.8428776744267744e-13 1.4737926945891633e-18
1.2431983285522175 1.2109027545821904e-20 3.995941464605866e-13 3.9959216352540245e-13 1.9829351841935035e-18
1.2619875648066055 1.2398764103006345e-20 4.1533918450001096e-13 4.1533652931975187e-13 2.6551802590210543e-18
1.3004222497298317 1.2982432893130377e-20 4.481360800174729e-13 4.48131386522837e-13 4.693494635826187e-18
1.3400274889804893 1.357421716864818e-20 4.828340990198897e-13 4.8282595478204e-13 8.144237849767413e-18
1.3808389325824078 1.4176533236138998e-20 5.196159778497798e-13 5.196020987584688e-13 1.387909131117277e-17
1.4228933163050095 1.4794663334157648e-20 5.587877275315652e-13 5.587644871244119e-13 2.3240407153249934e-17
1.466228494730424 1.5439499795725993e-20 6.009029200984437e-13 6.008646626357675e-13 3.825746267634092e-17
1.5108834753276823 1.611023102765999e-20 6.461036177242157e-13 6.46041677900734e-13 6.193982348181132e-17
1.5568984535646726 1.6806824418892135e-20 6.945689797739473e-13 6.94470246273436e-13 9.87335005112007e-17
1.6043148490894465 1.753384819142657e-20 7.46683025231e-13 7.465277815319237e-13 1.5524369907612302e-16
1.6531753430134553 1.8296212132066205e-20 8.028779656549947e-13 8.026374735359404e-13 2.4049211905437133e-16
1.7035239163302658 1.9099658554595485e-20 8.636609261016389e-13 8.632937907987458e-13 3.6713530289300216e-16
1.755405889504358 1.9959349603692307e-20 9.300223155138633e-13 9.29469721414731e-13 5.525940991322166e-16
1.8088679632656115 2.087638665677909e-20 1.002378244139502e-12 1.0015579044213892e-12 8.203397181126812e-16
1.8639582606462262 2.1851662466129982e-20 1.0811603236363742e-12 1.0799587234162105e-12 1.201600220163551e-15
1.9207263702978936 2.288930730793524e-20 1.1669912022798993e-12 1.1652539339276084e-12 1.7372683522907748e-15
1.979223391128241 2.399503077011176e-20 1.2606239655802574e-12 1.258143801705447e-12 2.480163874810423e-15
2.039501978296691 2.5174209937901832e-20 1.362854252385961e-12 1.359356789542258e-12 3.4974628437024107e-15
2.1016163906111602 2.6439930920484857e-20 1.4749700303784155e-12 1.4700962924167838e-12 4.873737961631538e-15
2.1656225393682647 2.779982199724257e-20 1.598064157737694e-12 1.5913505719002378e-12 6.7135858374561644e-15
2.231578038680979 2.9253450837190884e-20 1.7328406053667194e-12 1.7236960438777289e-12 9.144561488990651e-15
2.299542257339062 3.0804648437260726e-20 1.8802997335955817e-12 1.8679795448108985e-12 1.2320188784683266e-14
2.369576372248914 3.2460211386757716e-20 2.0416979253269327e-12 2.0252748133566916e-12 1.6423111970241304e-14
2.4417434235010123 3.4227938831176684e-20 2.2184528707828973e-12 2.1967855721973273e-12 2.1667298585569495e-14
2.5161083711144245 3.6121459170631077e-20 2.4124818881960112e-12 2.384180862790533e-12 2.8301025405477255e-14
2.5927381535095444 3.8161678994717673e-20 2.6263679241099535e-12 2.589759563149227e-12 3.66083609607259e-14
2.6717017477616296 4.0366718890903836e-20 2.862733089387409e-12 2.8158250553034076e-12 4.690803408400046e-14
2.753070231689431 4.276167849217952e-20 3.1249384481994977e-12 3.0653852529864724e-12 5.955319521302594e-14
2.836916847834745 4.5410774049309886e-20 3.41959713275839e-12 3.3446646684075154e-12 7.49324643508741e-14
2.9233170693905177 4.8450751307122065e-20 3.75963662226713e-12 3.666188915816708e-12 9.34477064504225e-14
2.967498994190263 5.0238557785601106e-20 3.957283615656512e-12 3.853477404254019e-12 1.038062114024928e-13
3.0123486681368425 5.214496756182943e-20 4.169529713218992e-12 4.054366115596983e-12 1.15163597622007e-13
3.0578761833420214 5.498142174495541e-20 4.4627781219746e-12 4.3351410047513515e-12 1.2763711722324903e-13
3.1040917844459814 5.82338845128598e-20 4.798215488201946e-12 4.6570357131127995e-12 1.4117977508914614e-13
3.127460860933648 6.101348141348336e-20 5.065089489522464e-12 4.916670994341868e-12 1.4841849518059605e-13
3.1510058709225794 6.446817036839756e-20 5.392175146507601e-12 5.2362202991574594e-12 1.5595484735014123e-13
3.162844764501044 6.747062674518874e-20 5.664506171475882e-12 5.50465469262781e-12 1.5985147884807257e-13
3.1747281389236908 7.084630513281936e-20 5.970259105968106e-12 5.806434185940552e-12 1.638249200275529e-13
3.1986289994194426 7.987186925095289e-20 6.781521637489924e-12 6.609495025262396e-12 1.7202661222752917e-13
3.2227097969389145 1.0034200818133239e-19 8.583678065060177e-12 8.402969779909303e-12 1.8070828515087443e-13
3.2348180950136065 1.1939739706251176e-19 1.0252131212014365e-11 1.0066792175051351e-11 1.853390369630154e-13
3.240889293275058 1.33590764376413e-19 1.1492382281891489e-11 1.130460063130651e-11 1.877816505849815e-13
3.2469718861334385 1.5002649275364387e-19 1.2930517846308543e-11 1.2740208819572189e-11 1.9030902673635534e-13
3.2714166318528037 2.3608292412804426e-19 2.0500755497799903e-11 2.0300009531685324e-11 2.0074596611457924e-13
3.2744851364798273 2.414803397538898e-19 2.0989120201405053e-11 2.0787146361246343e-11 2.019738401587077e-13
3.2775565192852394 2.4702043536691347e-19 2.1490796185045068e-11 2.1287588525336234e-11 2.03207659708836e-13
3.283707930232385 2.418207818487058e-19 2.1077911457533145e-11 2.0872501569471602e-11 2.0540988806154587e-13
3.2898708863219004 2.2511316089227443e-19 1.9658445516159517e-11 1.9451035374025906e-11 2.0741014213361015e-13
3.29141343181113 2.2116539144500415e-19 1.932275460832335e-11 1.9114842291044803e-11 2.0791231727854992e-13
3.292184975758714 2.19224447936306e-19 1.9157668178675603e-11 1.8949504456791078e-11 2.0816372188452858e-13
3.295272960557952 2.0710722381906688e-19 1.8115739832984005e-11 1.7906598930946062e-11 2.0914090203794212e-13
3.3076538914384823 1.6482048817360231e-19 1.4471071469844114e-11 1.425800768486207e-11 2.1306378498204376e-13
3.310756385682612 1.561280460667052e-19 1.3720741523284579e-11 1.350668934272026e-11 2.1405218056431872e-13
3.313861789986515 1.4807447314397972e-19 1.3025188605482718e-11 1.281014495606917e-11 2.1504364941354846e-13
3.3200813396944477 1.368580527369411e-19 1.206114429453646e-11 1.1843966276928845e-11 2.1717801760761645e-13
3.345076488085796 1.1751237072336213e-19 1.0434198001054395e-11 1.020750350891758e-11 2.2669449213681205e-13
3.3482140837626964 1.1836639403035864e-19 1.0519886862697826e-11 1.029190300703398e-11 2.279838556638477e-13
3.3513546224236106 1.1922778122368814e-19 1.0606382376125561e-11 1.0377103558617546e-11 2.2927881750801445e-13
3.3576445397418455 1.2501425969249908e-19 1.1142014099934747e-11 1.0910027125852232e-11 2.31986974082514e-13
3.3702598118196083 1.4579598024000295e-19 1.3043026148135813e-11 1.2805359054594232e-11 2.3766709354158005e-13
3.382922481734668 1.5092134453438808e-19 1.3552273102408956e-11 1.3309091348968054e-11 2.4318175344089937e-13
3.389271646505754 1.5356036444343523e-19 1.381512903627915e-11 1.3569153331105979e-11 2.459757051731707e-13
3.395632727569191 1.5645876822277375e-19 1.4102303289865876e-11 1.3853448246850687e-11 2.4885504301518955e-13
3.421196662673239 1.7044686237480418e-19 1.547877130888166e-11 1.5218003981778347e-11 2.6076732710331177e-13
3.4276182099114902 1.681025584500832e-19 1.529453218621033e-11 1.5031113348330788e-11 2.634188378795418e-13
3.4340518103208963 1.571078024412358e-19 1.4321022601851543e-11 1.4055099259309644e-11 2.659233425419001e-13
3.4469541582030403 1.4137690731078034e-19 1.2935505880872836e-11 1.2664782277660426e-11 2.7072360321240674e-13
3.472904465399547 1.3736266273526016e-19 1.2662835661109236e-11 1.2381044022065292e-11 2.8179163904394543e-13
3.4990501388274233 1.3109804691645837e-19 1.2176313476021541e-11 1.188321106664844e-11 2.931024093730971e-13
3.5253949054701885 1.0785828044579828e-19 1.0093242269313107e-11 9.78917609312064e-12 3.040661761924632e-13
3.5519380250092896 8.575172216111885e-20 8.084956048672681e-12 7.769890125200103e-12 3.1506592347257804e-13
3.578680990867387 7.742888610819544e-20 7.355215998235658e-12 7.02809664517858e-12 3.2711935305707497e-13
3.605625307711299 7.453301964458894e-20 7.133435571489894e-12 6.793633760521056e-12 3.398018109688347e-13
3.660119384959845 7.339457256594103e-20 7.130641952620645e-12 6.764250696691707e-12 3.6639125592893597e-13
3.715437065384467 7.297271924292083e-20 7.196807268989659e-12 6.8024664534134195e-12 3.9434081557623767e-13
3.8285932144167436 7.498999209538904e-20 7.621000079535843e-12 7.166873052150518e-12 4.5412702738532777e-13
3.94519561050918 7.77612885066169e-20 8.143318525786068e-12 7.624424574043123e-12 5.188939517429441e-13
4.06534921144712 8.081379131158493e-20 8.720728623181065e-12 8.132266521516527e-12 5.884621016645393e-13
4.189162171576248 8.399727626467327e-20 9.340321170600894e-12 8.677465911915469e-12 6.628552586854229e-13
4.316745939156006 8.723623405463124e-20 9.995921369911372e-12 9.254248825162741e-12 7.416725447486313e-13
4.448215356677963 9.048142489297226e-20 1.0683527428537159e-11 9.859849913529236e-12 8.236775150079218e-13
4.58368876423945 9.371165233896067e-20 1.1401924202948333e-11 1.0493069165670514e-11 9.088550372778217e-13
4.723288106065518 9.692131192840821e-20 1.2151591297475222e-11 1.1153961845201428e-11 9.976294522737942e-13
4.867139040275056 1.00094174501422e-19 1.2931591831391385e-11 1.1844178036943865e-11 1.0874137944475238e-12
4.940699165968905 1.0170121474580662e-19 1.3337793347591095e-11 1.2204857367829545e-11 1.1329359797615526e-12
5.015371051989984 1.0326427895850918e-19 1.3747464881019746e-11 1.2568749733183076e-11 1.178715147836674e-12
5.091171501069577 1.0490724719531927e-19 1.4177271328888418e-11 1.295149153174754e-11 1.2257797971408766e-12
5.129500256944802 1.0570940536019447e-19 1.439322514225084e-11 1.3143878043984346e-11 1.2493470982664937e-12
5.168117569889187 1.0651035250488808e-19 1.461146089088107e-11 1.3338274767929985e-11 1.2731861229510843e-12
5.20702561229733 1.0740197192318969e-19 1.484469920873616e-11 1.3545361087047575e-11 1.2993381216885863e-12
5.246226572918644 1.082828551697336e-19 1.5079126151620498e-11 1.375354891139426e-11 1.3255772402262414e-12
5.265937586045735 1.0871922075664057e-19 1.5196776326471363e-11 1.3858050974811312e-11 1.3387253516600516e-12
5.285722656980489 1.0915284467723242e-19 1.531471303391323e-11 1.3962822754436671e-11 1.351890279476559e-12
5.305582063971359 1.095837102035397e-19 1.5432932965144427e-11 1.4067862618374858e-11 1.3650703467695709e-12
5.3255160863122235 1.1002950291470761e-19 1.5553935183946238e-11 1.4175556096872204e-11 1.3783790870740354e-12
5.365609099470188 1.1104958464381198e-19 1.5816318479444236e-11 1.4410394900322221e-11 1.405923579122019e-12
5.406003951863644 1.1206535763740205e-19 1.6081152607229343e-11 1.4647603030751207e-11 1.4335495764781344e-12
5.446702915881641 1.1307716394698875e-19 1.6348504396426525e-11 1.4887260775009118e-11 1.4612436214174073e-12
5.487708281020852 1.1411858789935246e-19 1.6623284547481268e-11 1.5134162544282826e-11 1.489122003198436e-12
5.529022354014368 1.1545158302944416e-19 1.694406742877936e-11 1.542588658097663e-11 1.5181808478027288e-12
5.570647458961463 1.1680254495781848e-19 1.7271394868401816e-11 1.5724076820682397e-11 1.5473180477194202e-12
5.612585937458331 1.1817383723403065e-19 1.7605719352406595e-11 1.602919945030359e-11 1.5765199021030017e-12
5.654840148729818 1.1961761534932255e-19 1.7954979188084633e-11 1.6349047876813562e-11 1.6059313112710737e-12
5.67608639626678 1.2056846105258102e-19 1.816570042667465e-11 1.6544358332569265e-11 1.6213420941053826e-12
5.686739436050992 1.2105068768676376e-19 1.8272586378936733e-11 1.6643530519020795e-11 1.6290558599159406e-12
5.6974124697621304 1.2153762566923026e-19 1.8380522068166994e-11 1.674374714952466e-11 1.636774918642335e-12
5.718818669136295 1.2252618311674915e-19 1.8599645380997e-11 1.6947417340040387e-11 1.6522280409566117e-12
5.740305295436557 1.2359682511467943e-19 1.8832663163882523e-11 1.716483785214745e-11 1.6678253117350755e-12
5.7835210386641895 1.2631505182349417e-19 1.9391743473153487e-11 1.7691696353977528e-11 1.7000471191759622e-12
5.827062130521658 1.2933105823099857e-19 2.0004233394258517e-11 1.8271559806902875e-11 1.7326735873556386e-12
5.8489554468988025 1.3144001933800917e-19 2.0406821261160514e-11 1.8656455767804918e-11 1.7503654933555958e-12
5.870931020387893 1.3365531817123893e-19 2.082872350464484e-11 1.906061919870271e-11 1.7681043059421266e-12
5.892989160043636 1.3598555220136376e-19 2.1271486695123728e-11 1.9485598423718723e-11 1.7858882714050032e-12
5.915130176081913 1.3860735043069269e-19 2.1763062112668282e-11 1.995871547590866e-11 1.8043466367596236e-12
5.95966208400165 1.4592412332835386e-19 2.308437717554208e-11 2.123754370200758e-11 1.846833473534498e-12
6.004529249263818 1.563004027395508e-19 2.491199424058517e-11 2.3017110040408346e-11 1.894884200176833e-12
6.027089341400364 1.6347682700267555e-19 2.615370747684102e-11 2.4230846556650292e-11 1.9228609201907257e-12
6.049734195844842 1.7184299168094712e-19 2.759545451852793e-11 2.5642912787213878e-11 1.95254173131405e-12
6.095279466722835 1.9588523919904218e-19 3.169310335960457e-11 2.9666882308270927e-11 2.026221051333641e-12
6.141167624020661 2.3236153931198884e-19 3.7877789795516254e-11 3.575504714035972e-11 2.122742655156536e-12
6.164241091010745 2.5557003742179996e-19 4.181758860417477e-11 3.963383589136841e-11 2.183752712806356e-12
6.187401249150058 2.8155731951819936e-19 4.6242843972019046e-11 4.399652722560131e-11 2.2463167464177326e-12
6.1990139391386085 2.941631074950144e-19 4.84038883674002e-11 4.612575277766822e-11 2.2781355897319874e-12
6.204828454712694 3.00765531706974e-19 4.953672329109245e-11 4.724252528498549e-11 2.2941980061069752e-12
6.210648424152782 3.0553231257886534e-19 5.036902282189836e-11 4.80612351968541e-11 2.3077876250442744e-12
6.233982942956859 3.214441387048575e-19 5.3191293776864795e-11 5.083653095251817e-11 2.3547628243466266e-12
6.239830258556775 3.2331642218212905e-19 5.355129444408484e-11 5.119031844624125e-11 2.360975997843603e-12
6.245683058788269 3.2323960241628827e-19 5.358878849407305e-11 5.1221592557194134e-11 2.3671959368789105e-12
6.257405133728602 3.2224852603087074e-19 5.352474990910619e-11 5.1146845367273853e-11 2.3779045418323257e-12
6.269149208991335 3.184212722390493e-19 5.29883153983578e-11 5.0607339406169064e-11 2.380975992188734e-12
6.280915325867298 3.0965678202902815e-19 5.162653384945188e-11 4.925191863466221e-11 2.3746152147896762e-12
6.304513850009849 2.883883541470985e-19 4.8261270939282326e-11 4.5907893809520576e-11 2.3533771297617486e-12
6.32820103803542 2.6258477888146653e-19 4.410819121564053e-11 4.178511166579357e-11 2.323079549846976e-12
6.3519772230701035 2.3908624273653704e-19 4.031187069224262e-11 3.80161878637202e-11 2.2956828285224313e-12
6.375842739491607 2.1923934512710035e-19 3.710440962381873e-11 3.4833138609138924e-11 2.271271014679804e-12
6.399797922933955 2.0355467044348217e-19 3.45793452386968e-11 3.232177138457679e-11 2.257573854119999e-12
6.42384311029221 1.9044012782847618e-19 3.247303068958549e-11 3.022700988836372e-11 2.246020801221775e-12
6.447978639727206 1.8094117081043215e-19 3.096923084612069e-11 2.872643228016515e-11 2.2427985659555378e-12
6.472204850670314 1.729837648034557e-19 2.9718510075822465e-11 2.7477287618454464e-11 2.241222457368001e-12
