Dust emission spectrum from A.P. Jones, M. Kohler, N. Ysard, M. Bocchio, and L. Verstraete (2017), A&A, 602A, 46J 
inside the DustPedia framework.

lambda    nu*dP/dnu     j_nu    j_nu(carb.) j_nu(sil)
 (um)   (erg s-1 H-1) (Jy cm2 sr-1 H-1)
0.9927057738263894 9.568621789673708e-24 2.5213861902657847e-16 2.5213861902640256e-16 1.7593632731751936e-28
1.0001793341362166 9.726666708195539e-24 2.5823276449865844e-16 2.5823276449844653e-16 2.11958528719877e-28
1.0077091589558085 9.884485180029966e-24 2.6439832133364886e-16 2.643983213333938e-16 2.550295540567897e-28
1.0114953028030835 9.963290060848106e-24 2.675075707183613e-16 2.675075707180817e-16 2.7960905841559187e-28
1.0152956718711033 1.0042015066497303e-23 2.706342991141788e-16 2.7063429911387233e-16 3.064589263566487e-28
1.0229392996569957 1.0199117435263538e-23 2.769375777191514e-16 2.769375777187837e-16 3.677901772050939e-28
1.0267826658714554 1.0277304228522054e-23 2.80109071573416e-16 2.801090715730132e-16 4.027348000147163e-28
1.0306404723013447 1.0355376576212295e-23 2.832973568623844e-16 2.832973568619437e-16 4.408573185390309e-28
1.03451277320114 1.0433326943927998e-23 2.8650229633226493e-16 2.865022963317826e-16 4.824326888500143e-28
1.0383996230291617 1.0511147839109079e-23 2.8972375101538647e-16 2.8972375101485877e-16 5.277583463544195e-28
1.0403485208654093 1.055000740487058e-23 2.9134062767396597e-16 2.913406276734141e-16 5.5192704944367405e-28
1.0423010764483396 1.0588831812478157e-23 2.929615802630753e-16 2.929615802624982e-16 5.771559281332901e-28
1.0462171883269815 1.0666371459445415e-23 2.9621564177857315e-16 2.962156417779422e-16 6.3097311764832645e-28
1.0471985131304309 1.0685732956827922e-23 2.9703167661963514e-16 2.9703167661899e-16 6.45161361355671e-28
1.048180758391296 1.0705084859151842e-23 2.978487147264727e-16 2.978487147258131e-16 6.59655321679052e-28
1.0501480137395462 1.0743759421481568e-23 2.994857916499814e-16 2.994857916492919e-16 6.895856197597314e-28
1.0521189612883777 1.0782394234035448e-23 3.0112685431315463e-16 3.0112685431243376e-16 7.20815700099451e-28
1.0531058218030118 1.0801666778569112e-23 3.019480451456064e-16 3.019480451448694e-16 7.369359008952886e-28
1.0540936079674168 1.082083183243457e-23 3.0276750396453264e-16 3.027675039637793e-16 7.5340487222138925e-28
1.058054026499678 1.0897382987681821e-23 3.0605500901896153e-16 3.0605500901813865e-16 8.228783420657427e-28
1.0590464539527713 1.091649295157949e-23 3.0687929101685783e-16 3.0687929101601666e-16 8.411830826171073e-28
1.06003981227728 1.0935591562281795e-23 3.0770453060445143e-16 3.077045306035915e-16 8.598776640957473e-28
1.0620293250338977 1.097375427929165e-23 3.093578730957792e-16 3.0935787309488075e-16 8.984681155805041e-28
1.0660195594769086 1.1049938593778955e-23 3.1267594486214535e-16 3.126759448611645e-16 9.806851715590598e-28
1.070024785945596 1.1125928871477979e-23 3.160090715757397e-16 3.1600907157466966e-16 1.0700807125198286e-27
1.0740450607676866 1.1201718107703086e-23 3.1935709911783717e-16 3.1935709911666985e-16 1.1672491221493017e-27
1.07808044048254 1.1277299353877563e-23 3.227198720263195e-16 3.227198720250467e-16 1.2728311235091333e-27
1.0861967418109137 1.1427676762860556e-23 3.2948517341827934e-16 3.2948517341676734e-16 1.5120511501823267e-27
1.0902777775684922 1.1502155497473238e-23 3.328785628583326e-16 3.3287856285668534e-16 1.647234336395933e-27
1.0943741465085532 1.1576393719543587e-23 3.3628581358526874e-16 3.3628581358347477e-16 1.7939284187025315e-27
1.1026131145906286 1.1724122234861545e-23 3.431412464379174e-16 3.4314124643579174e-16 2.125630469685509e-27
1.1109141095355224 1.1870810164778218e-23 3.5005015610478704e-16 3.5005015610227166e-16 2.5154522027456e-27
1.1192775983109025 1.2016270170810663e-23 3.570071623345678e-16 3.5700716233159494e-16 2.9729788451756377e-27
1.1277040513999907 1.2159826423124505e-23 3.6399209279636803e-16 3.639920927928588e-16 3.5092718319430414e-27
1.1361939428280308 1.2302172580695082e-23 3.710254649107031e-16 3.71025464906566e-16 4.1370772811380985e-27
1.1447477501889525 1.2443261171379287e-23 3.781058949055199e-16 3.7810589490064883e-16 4.8710647234991056e-27
1.1533659546722406 1.2583122745630433e-23 3.852343403139698e-16 3.852343403082417e-16 5.7281027892804804e-27
1.1707974979042381 1.2859616768446918e-23 3.996494733369224e-16 3.9964947332903073e-16 7.891682284546738e-27
1.1884924949847024 1.3130607057973345e-23 4.142387109652669e-16 4.1423871095444797e-16 1.0818903079262884e-26
1.2064549276569216 1.339821345927784e-23 4.29069285697004e-16 4.290692856822441e-16 1.475982892422774e-26
1.2246888378427687 1.3659512295922812e-23 4.440484782196931e-16 4.4404847819965397e-16 2.003909132414762e-26
1.2431983285522175 1.3913892113654248e-23 4.591541163863936e-16 4.591541163593169e-16 2.707669145585202e-26
1.2619875648066055 1.4161257722831168e-23 4.74379961198635e-16 4.743799611622219e-16 3.6413238084410515e-26
1.3004222497298317 1.463083317853329e-23 5.050366354280868e-16 5.050366353631469e-16 6.494001970394542e-26
1.3400274889804893 1.506640050916359e-23 5.359109718766393e-16 5.359109717629194e-16 1.137199673183425e-25
1.3808389325824078 1.5466343968287983e-23 5.66891729520734e-16 5.668917293251055e-16 1.9562839371537463e-25
1.4228933163050095 1.583261054185401e-23 5.979905230522519e-16 5.97990522721494e-16 3.3075801794726734e-25
1.466228494730424 1.6174017802550353e-23 6.294902461779992e-16 6.294902456280938e-16 5.499056014334349e-25
1.5108834753276823 1.648392546276524e-23 6.610906980479161e-16 6.6109069714850935e-16 8.994068288867707e-25
1.5568984535646726 1.6756960707974348e-23 6.925082819314102e-16 6.925082804827561e-16 1.4486541020339077e-24
1.6043148490894465 1.6993622198067827e-23 7.236773749809444e-16 7.236773726789421e-16 2.3020022472294177e-24
1.6531753430134553 1.7194629461849802e-23 7.545380990815161e-16 7.545380954766665e-16 3.6048493758423315e-24
1.7035239163302658 1.7362371829643908e-23 7.851031520196122e-16 7.851031464552519e-16 5.564360227419284e-24
1.755405889504358 1.7510656572876418e-23 8.159234491820282e-16 8.159234407115245e-16 8.470503695151454e-24
1.8088679632656115 1.7636073871815888e-23 8.467948525663495e-16 8.467948398452317e-16 1.2721118058869733e-23
1.8639582606462262 1.7736314179006135e-23 8.775441780511263e-16 8.775441591956256e-16 1.885550063039707e-23
1.9207263702978936 1.78130516437839e-23 9.081827717366816e-16 9.081827441427068e-16 2.759397482804101e-23
1.979223391128241 1.7870183746018071e-23 9.388436345584332e-16 9.388435946720828e-16 3.9886350506918286e-23
2.039501978296691 1.7912374936312615e-23 9.697208537031842e-16 9.69720796735751e-16 5.696743286209182e-23
2.1016163906111602 1.7952690570756516e-23 1.0015033940957605e-15 1.0015033136683026e-15 8.042745803437295e-23
2.1656225393682647 1.799870641970012e-23 1.0346500642277162e-15 1.0346499519454862e-15 1.1228222998090422e-22
2.231578038680979 1.8050964677558047e-23 1.0692565719305282e-15 1.0692564168753586e-15 1.5505516954926849e-22
2.299542257339062 1.8114001390481528e-23 1.1056692322991872e-15 1.1056690204300852e-15 2.1186910165240643e-22
2.369576372248914 1.819784699749396e-23 1.1446168978233371e-15 1.1446166112730113e-15 2.865503255175806e-22
2.4417434235010123 1.8314345844413264e-23 1.187027746994857e-15 1.1870273632676953e-15 3.837271616517288e-22
2.5161083711144245 1.8483782472522998e-23 1.2344958222665713e-15 1.2344953133121515e-15 5.08954420192439e-22
2.5927381535095444 1.8739351850967873e-23 1.2896820558342053e-15 1.2896813870081508e-15 6.688260546619186e-22
2.6717017477616296 1.9120686512655952e-23 1.3560037445579498e-15 1.3560028735065978e-15 8.71051351999403e-22
2.753070231689431 1.968745703004572e-23 1.4387202184244679e-15 1.4387190938601094e-15 1.1245643582316554e-21
2.836916847834745 2.0574851686531428e-23 1.5493614743891646e-15 1.5493600347196305e-15 1.4396695342778167e-21
2.9233170693905177 2.208061067044973e-23 1.7133908201428097e-15 1.7133889923002429e-15 1.827842566540436e-21
2.967498994190263 2.3359325769874588e-23 1.8400105659163996e-15 1.8400085157433744e-15 2.050173025690242e-21
3.0123486681368425 2.4852716718586558e-23 1.987231858750159e-15 1.987229562227129e-15 2.2965230299854907e-21
3.0578761833420214 2.8194135646803767e-23 2.288485232633776e-15 2.288482662847552e-15 2.5697862238464087e-21
3.1040917844459814 3.2499935573498373e-23 2.677851486961834e-15 2.6778486166296787e-15 2.8703321546207652e-21
3.127460860933648 3.705483733624487e-23 3.0761409245908358e-15 3.0761378920682595e-15 3.0325225771274343e-21
3.1510058709225794 4.3123620976046966e-23 3.606898038608539e-15 3.6068948360853295e-15 3.202523210666002e-21
3.162844764501044 4.8772682860698636e-23 4.094717603665422e-15 4.094714312798401e-15 3.2908670212797122e-21
3.1747281389236908 5.534209729958355e-23 4.663710545338682e-15 4.66370716407519e-15 3.3812634920409697e-21
3.1986289994194426 7.3666125895678e-23 6.254622952944566e-15 6.254619384128331e-15 3.568816236914645e-21
3.2227097969389145 1.1686021845674608e-22 9.996715354077664e-15 9.996711585476358e-15 3.7686013035999464e-21
3.2348180950136065 1.5782173058381477e-22 1.3551460332132064e-14 1.3551456456614213e-14 3.87551785282215e-21
3.240889293275058 1.8844575439111491e-22 1.6211380022947915e-14 1.6211376091005496e-14 3.931942418501435e-21
3.2469718861334385 2.238730067145896e-22 1.9295218167788865e-14 1.9295214177441368e-14 3.990347496682629e-21
3.2714166318528037 4.128481334527377e-22 3.585053291294878e-14 3.5850528680355826e-14 4.232592965082817e-21
3.2744851364798273 4.246614988386351e-22 3.6910960342018365e-14 3.691095608066374e-14 4.261354614993738e-21
3.2775565192852394 4.368141756464838e-22 3.80028656560875e-14 3.800286136580499e-14 4.290282500670127e-21
3.283707930232385 4.2512686028956045e-22 3.7055484854931516e-14 3.705548051252045e-14 4.3424110686254006e-21
3.2898708863219004 3.880631761829781e-22 3.388837318788096e-14 3.3888368797661575e-14 4.390219390391954e-21
3.29141343181113 3.793226402358833e-22 3.314062045047357e-14 3.314061604823779e-14 4.402235781707101e-21
3.292184975758714 3.750278513039549e-22 3.277307435679032e-14 3.2773069948536676e-14 4.4082536486305735e-21
3.295272960557952 3.479187279706892e-22 3.043257035035147e-14 3.0432565918622675e-14 4.431728797587919e-21
3.3076538914384823 2.5400458577619327e-22 2.2301344663922347e-14 2.230134013769026e-14 4.52623209177177e-21
3.310756385682612 2.3489070048948328e-22 2.0642508945910282e-14 2.0642504395811304e-14 4.550098975632083e-21
3.313861789986515 2.1725517987465e-22 1.9110584243874723e-14 1.911057966981196e-14 4.5740627619485335e-21
3.3200813396944477 1.9252330599062834e-22 1.69668596562414e-14 1.6966855030790062e-14 4.625451342949692e-21
3.345076488085796 1.4840380806321818e-22 1.3177120909996631e-14 1.3177116055795083e-14 4.8542015446855324e-21
3.3482140837626964 1.5005816519530268e-22 1.333651272905827e-14 1.333650784386284e-14 4.885195432405591e-21
3.3513546224236106 1.5173081276473453e-22 1.349781906453317e-14 1.3497814148178933e-14 4.9163542354748814e-21
3.3576445397418455 1.6395515887840588e-22 1.4612658559700673e-14 1.461265357824416e-14 4.9814565179440016e-21
3.3702598118196083 2.090439180692654e-22 1.8701237750161816e-14 1.870123263203404e-14 5.118127777376916e-21
3.382922481734668 2.1931304550532663e-22 1.9693637747389684e-14 1.9693632495660607e-14 5.25172907663189e-21
3.389271646505754 2.246331631173516e-22 2.0209226160288812e-14 2.020922084066965e-14 5.319619155993584e-21
3.395632727569191 2.3036582710439243e-22 2.076386512784827e-14 2.0763859738244088e-14 5.389604176452163e-21
3.421196662673239 2.5789183457210296e-22 2.341990151154349e-14 2.341989583122177e-14 5.6803217306197665e-21
3.4276182099114902 2.5234436807248554e-22 2.295913337118889e-14 2.29591276251315e-14 5.746057395211779e-21
3.4340518103208963 2.280361176190322e-22 2.0786430360020688e-14 2.0786424551382748e-14 5.808637948119128e-21
3.4469541582030403 1.9341672358759406e-22 1.769697196676263e-14 1.769696603716018e-14 5.929602452221918e-21
3.472904465399547 1.8371406567482986e-22 1.6935759513909317e-14 1.6935753306522292e-14 6.2073870239751175e-21
3.4990501388274233 1.6887446712188837e-22 1.5684966314429943e-14 1.5684959820607397e-14 6.4938225459964275e-21
3.5253949054701885 1.1606443344969404e-22 1.0861163749472384e-14 1.0861156974155e-14 6.775317383303087e-21
3.5519380250092896 6.642940697218484e-23 6.263184250695138e-15 6.26317718969271e-15 7.061002429292219e-21
3.578680990867387 4.67484900079125e-23 4.440787655385933e-15 4.440780280439174e-15 7.37494676089625e-21
3.605625307711299 3.8787525407846235e-23 3.712291743898046e-15 3.712284036342169e-15 7.707555876007731e-21
3.660119384959845 3.2978862691080745e-23 3.204057924630016e-15 3.2040495100205094e-15 8.414609505957514e-21
3.715437065384467 2.886482892031542e-23 2.846743450800232e-15 2.8467342786154403e-15 9.172184791413762e-21
3.8285932144167436 2.677383628461893e-23 2.720941858415087e-15 2.7209310141876894e-15 1.0844227398136833e-20
3.94519561050918 2.6369209204512214e-23 2.761436621605886e-15 2.7614238855082235e-15 1.2736097662839676e-20
4.06534921144712 2.6657624174945447e-23 2.8766613024270326e-15 2.8766464366776442e-15 1.4865749389341314e-20
4.189162171576248 2.7347971262378896e-23 3.041037118276326e-15 3.0410198592795214e-15 1.7258996804389396e-20
4.316745939156006 2.833194439074944e-23 3.2464020421752505e-15 3.2463821084480823e-15 1.9933727168684913e-20
4.448215356677963 2.957338968289237e-23 3.4918561484384662e-15 3.491833262593692e-15 2.288584477373343e-20
4.58368876423945 3.1077039565228705e-23 3.781152511249105e-15 3.78112636225188e-15 2.6148997224898202e-20
4.723288106065518 3.287788293513849e-23 4.1220923262898675e-15 4.122062550757567e-15 2.9775532300169336e-20
4.867139040275056 3.504563943400345e-23 4.527695112008826e-15 4.52766138119096e-15 3.37308178652007e-20
4.940699165968905 3.635422126319874e-23 4.767741385715748e-15 4.767705531754112e-15 3.585396163506359e-20
5.015371051989984 3.771008755747572e-23 5.020304306437598e-15 5.020266230234976e-15 3.8076202624211947e-20
5.091171501069577 3.936480189869414e-23 5.3197990820087905e-15 5.319758642035737e-15 4.0439973055323156e-20
5.129500256944802 4.0214372406693016e-23 5.475525229108974e-15 5.47548356692533e-15 4.1662183644981136e-20
5.168117569889187 4.1100242634281906e-23 5.6382743436040404e-15 5.638231424038082e-15 4.291956595947679e-20
5.20702561229733 4.2187243841433665e-23 5.830963194228576e-15 5.830918921362278e-15 4.427286629649489e-20
5.246226572918644 4.3302189898308024e-23 6.030125296331525e-15 6.0300796371414375e-15 4.565919008754713e-20
5.265937586045735 4.387042263725181e-23 6.132209148724609e-15 6.13216278379521e-15 4.636492939945043e-20
5.285722656980489 4.44459829199314e-23 6.236003064709287e-15 6.235955985550547e-15 4.707915873938598e-20
5.305582063971359 4.502898968606589e-23 6.341539066549944e-15 6.341491264591847e-15 4.780195809617881e-20
5.3255160863122235 4.565531209775382e-23 6.453903238313897e-15 6.453854701231198e-15 4.853708269937915e-20
5.365609099470188 4.7214821419999645e-23 6.724605543766992e-15 6.7245554812463724e-15 5.006252062159138e-20
5.406003951863644 4.883389830253601e-23 7.007565830913853e-15 7.007514205013553e-15 5.1625900301011674e-20
5.446702915881641 5.0515423067875577e-23 7.303434108938863e-15 7.303380880943075e-15 5.3227995788273386e-20
5.487708281020852 5.2332440982564134e-23 7.62309693390773e-15 7.623042059648452e-15 5.487425927888855e-20
5.529022354014368 5.485695090599766e-23 8.050992898481162e-15 8.050936296153433e-15 5.660232772761508e-20
5.570647458961463 5.753045265995085e-23 8.506930779691008e-15 8.506872405098577e-15 5.837459243308237e-20
5.612585937458331 6.036366833256931e-23 8.993071805228044e-15 8.99301161318814e-15 6.019203990511293e-20
5.654840148729818 6.34780382828148e-23 9.528252615134871e-15 9.528190553193128e-15 6.206194174164328e-20
5.67608639626678 6.55984423852978e-23 9.883527105053707e-15 9.883464063046206e-15 6.304200750035033e-20
5.686739436050992 6.669142052334935e-23 1.006706170393896e-14 1.0066998167049781e-14 6.353688917898672e-20
5.6974124697621304 6.780694645288059e-23 1.025466038841437e-14 1.0254596353384852e-14 6.403502951892376e-20
5.718818669136295 7.010781328700733e-23 1.0642463777174773e-14 1.0642398736009299e-14 6.504116547239551e-20
5.740305295436557 7.264396529683741e-23 1.1068887312070808e-14 1.1068821245551056e-14 6.6066519754281e-20
5.7835210386641895 7.922228953736067e-23 1.2162116025658403e-14 1.2162047820514546e-14 6.820514385500032e-20
5.827062130521658 8.68003388861304e-23 1.3425810176837358e-14 1.3425739759547987e-14 7.041728937529121e-20
5.8489554468988025 9.211561463505224e-23 1.4301480574081632e-14 1.4301408965192013e-14 7.160888962253777e-20
5.870931020387893 9.781955383467941e-23 1.5244110507895186e-14 1.5244037689407345e-14 7.281848784637901e-20
5.892989160043636 1.0394343867859979e-22 1.6259311648219864e-14 1.6259237601855903e-14 7.404636396442005e-20
5.915130176081913 1.10907918129368e-22 1.7413909893927852e-14 1.7413834573097403e-14 7.532083044856788e-20
5.95966208400165 1.3037885676795937e-22 2.0625203267969516e-14 2.0625125091894315e-14 7.817607520153917e-20
6.004529249263818 1.5844171904839864e-22 2.525328868780536e-14 2.5253207299026624e-14 8.138877874174622e-20
6.027089341400364 1.7794814057428551e-22 2.846888883249169e-14 2.8468805604069776e-14 8.322842191075158e-20
6.049734195844842 2.0099947803340634e-22 3.227755697257044e-14 3.227747179030453e-14 8.518226592128248e-20
6.095279466722835 2.6758344081579785e-22 4.329345938351429e-14 4.329336946748094e-14 8.991603335803356e-20
6.141167624020661 3.7005274131299573e-22 6.032314982165813e-14 6.032305382715113e-14 9.599450700314571e-20
6.164241091010745 4.354895018690418e-22 7.125686960142531e-14 7.125676984033073e-14 9.976109458887289e-20
6.187401249150058 5.100323387522668e-22 8.376747548941103e-14 8.376737180308566e-14 1.0368632537018678e-19
6.1990139391386085 5.464306492882454e-22 8.991395411174229e-14 8.99138484199156e-14 1.0569182670788758e-19
6.204828454712694 5.656039750522146e-22 9.315617865347912e-14 9.315607194246534e-14 1.0671101381151856e-19
6.210648424152782 5.796010255228724e-22 9.555106311258515e-14 9.555095551827397e-14 1.0759431114828659e-19
6.233982942956859 6.271571740176556e-22 1.037794673184916e-13 1.037793565604769e-13 1.1075801472696961e-19
6.239830258556775 6.332377044223842e-22 1.0488393547642639e-13 1.0488382422283883e-13 1.112535875597072e-19
6.245683058788269 6.337673347075285e-22 1.0507011950334812e-13 1.0507000775206695e-13 1.1175128113681093e-19
6.257405133728602 6.32466329104056e-22 1.0505122399840562e-13 1.0505111134229573e-13 1.1265610987168966e-19
6.269149208991335 6.231202637654014e-22 1.0369311332542265e-13 1.0369300017990562e-13 1.1314551700770132e-19
6.280915325867298 5.996749297623477e-22 9.997887938117669e-14 9.997876626313522e-14 1.131180414653908e-19
6.304513850009849 5.418549779219475e-22 9.06784532843906e-14 9.067834069312153e-14 1.1259126904655392e-19
6.32820103803542 4.701836258502712e-22 7.898001309827912e-14 7.89799015497256e-14 1.1154855353287138e-19
6.3519772230701035 4.044564098598764e-22 6.819461591893757e-14 6.819450526377459e-14 1.106551629852343e-19
6.375842739491607 3.4916264637728153e-22 5.909283230621084e-14 5.909272237740813e-14 1.0992880271712833e-19
6.399797922933955 3.0484869629330584e-22 5.1786914501771336e-14 5.178680471085847e-14 1.0979091285001718e-19
6.42384311029221 2.6800763937732715e-22 4.5699508805107815e-14 4.569939902478936e-14 1.0978031846654153e-19
6.447978639727206 2.411637753922963e-22 4.127671219542821e-14 4.12766019479475e-14 1.1024748071693611e-19
6.472204850670314 2.1880374261640605e-22 3.759035558603721e-14 3.7590244767682376e-14 1.108183548420271e-19
6.496522083828205 2.042757276909811e-22 3.522630722067455e-14 3.5226195433053324e-14 1.1178762121514396e-19
