Dust emission spectrum from A.P. Jones, M. Kohler, N. Ysard, M. Bocchio, and L. Verstraete (2017), A&A, 602A, 46J 
inside the DustPedia framework.

lambda    nu*dP/dnu     j_nu    j_nu(carb.) j_nu(sil)
 (um)   (erg s-1 H-1) (Jy cm2 sr-1 H-1)
0.9927057738263894 1.5920386836017767e-21 4.19511235728267e-14 4.195112109331497e-14 2.4795117280483e-21
1.0001793341362166 1.6188063757012603e-21 4.2977605599785347e-14 4.2977602615924754e-14 2.9838605865329852e-21
1.0077091589558085 1.6456804829515754e-21 4.402001209157824e-14 4.402000850556488e-14 3.5860133572750446e-21
1.0114953028030835 1.659156214875965e-21 4.454721741243376e-14 4.4547213483170117e-14 3.929263635793123e-21
1.0152956718711033 1.6726570989185453e-21 4.507844079366358e-14 4.507843648973181e-14 4.30393176483381e-21
1.0229392996569957 1.6997193278064406e-21 4.615263589549765e-14 4.6152630736751074e-14 5.158746572198731e-21
1.0267826658714554 1.7132499377984858e-21 4.669481789963116e-14 4.6694812254400055e-14 5.6452311078088876e-21
1.0306404723013447 1.7268032384612763e-21 4.7241043305102145e-14 4.7241037129571665e-14 6.175530481283284e-21
1.03451277320114 1.7403788156171564e-21 4.779132580068642e-14 4.779131904729601e-14 6.7533903916891215e-21
1.0383996230291617 1.7539762679972687e-21 4.834567940005396e-14 4.8345672017195634e-14 7.382858323759256e-21
1.0403485208654093 1.760783075610889e-21 4.8624387335438624e-14 4.862437961714042e-14 7.718298214005751e-21
1.0423010764483396 1.767595207571551e-21 4.890411845670897e-14 4.8904110388402707e-14 8.068306260891808e-21
1.0462171883269815 1.7812352598768706e-21 4.946665767915084e-14 4.9466648864695834e-14 8.814454976429897e-21
1.0471985131304309 1.7846485292532144e-21 4.96079348943611e-14 4.960792588329592e-14 9.011065161535338e-21
1.048180758391296 1.788063090073949e-21 4.974946954979733e-14 4.9749460337928245e-14 9.211869094780644e-21
1.0501480137395462 1.794896064343143e-21 5.0033312146253776e-14 5.003330251985377e-14 9.626400002811955e-21
1.0521189612883777 1.801734139837129e-21 5.031818741380926e-14 5.0318177355061485e-14 1.0058747750945776e-20
1.0531058218030118 1.8051505483377268e-21 5.046088630927938e-14 5.046087602743536e-14 1.0281844033911524e-20
1.0540936079674168 1.808553378731891e-21 5.0603428714599964e-14 5.0603418204879884e-14 1.0509720082990932e-20
1.058054026499678 1.822176596040743e-21 5.1176165430341135e-14 5.117615395986298e-14 1.1470478171528832e-20
1.0590464539527713 1.8255853498743773e-21 5.1319992633637146e-14 5.131998091015616e-14 1.1723480997301255e-20
1.06003981227728 1.8289952739482387e-21 5.14640775528903e-14 5.146406557107455e-14 1.19818157445885e-20
1.0620293250338977 1.8358186141725828e-21 5.175302156544463e-14 5.175300905053471e-14 1.2514909933555321e-20
1.0660195594769086 1.8494791358240036e-21 5.2334013568380056e-14 5.233399991846562e-14 1.364991443333962e-20
1.070024785945596 1.8631578793344774e-21 5.291915834163505e-14 5.29191434587098e-14 1.4882925247056678e-20
1.0740450607676866 1.8768545789954232e-21 5.350847325838592e-14 5.3508457036436896e-14 1.622194900647338e-20
1.07808044048254 1.8905689853561882e-21 5.4101976179367275e-14 5.410195850376079e-14 1.767560649640149e-20
1.0861967418109137 1.918029010138996e-21 5.530101473300214e-14 5.53009937683575e-14 2.0964644617453638e-20
1.0902777775684922 1.9317264827258966e-21 5.590520277233578e-14 5.590517995158341e-14 2.28207523627747e-20
1.0943741465085532 1.9454400091593826e-21 5.651361659866638e-14 5.651359176562654e-14 2.48330398396166e-20
1.1026131145906286 1.972914602899287e-21 5.774320349044237e-14 5.774317411373028e-14 2.937671209315797e-20
1.1109141095355224 2.000451733271484e-21 5.898994523469899e-14 5.89899105283001e-14 3.470639888606925e-20
1.1192775983109025 2.028029075839558e-21 6.025338105797861e-14 6.025334010822764e-14 4.094975096411854e-20
1.1277040513999907 2.0555470536865085e-21 6.1530719919644e-14 6.15306716659342e-14 4.825370980365774e-20
1.1361939428280308 2.0831230187678068e-21 6.282562542793101e-14 6.28255686407413e-14 5.678718970189748e-20
1.1447477501889525 2.1107571911651595e-21 6.413830953974098e-14 6.413824279564111e-14 6.674409985152232e-20
1.1533659546722406 2.138459957887078e-21 6.546929786968348e-14 6.546921952283063e-14 7.834685287451643e-20
1.1707974979042381 2.1941556537753765e-21 6.818967992904381e-14 6.818957238319585e-14 1.0754584796438908e-19
1.1884924949847024 2.250135953405353e-21 7.098631561510608e-14 7.098616872835341e-14 1.4688675265414968e-19
1.2064549276569216 2.3067802421283796e-21 7.38731737450117e-14 7.387297411769658e-14 1.9962731509183107e-19
1.2246888378427687 2.363723419037753e-21 7.684079522145592e-14 7.684052524747362e-14 2.6997398227023405e-19
1.2431983285522175 2.4209210831716166e-21 7.988964350916746e-14 7.988928017021476e-14 3.6333895269790024e-19
1.2619875648066055 2.478458808948112e-21 8.302448953567693e-14 8.302400288530772e-14 4.86650369218879e-19
1.3004222497298317 2.5942118625596495e-21 8.95486958717479e-14 8.954783514884846e-14 8.607228994265924e-19
1.3400274889804893 2.7113550329784586e-21 9.64427375963052e-14 9.644124319447897e-14 1.4944018262559228e-18
1.3808389325824078 2.8303500539579245e-21 1.0374152033131834e-13 1.0373897213178986e-13 2.5481995284757936e-18
1.4228933163050095 2.9522359297630665e-21 1.1150461278294896e-13 1.11500343284545e-13 4.269498403920535e-18
1.466228494730424 3.0791799577617802e-21 1.198412029280805e-13 1.198341703416689e-13 7.03258641160694e-18
1.5108834753276823 3.210998932969983e-21 1.287776707570806e-13 1.2876627771812394e-13 1.1393038956678121e-17
1.5568984535646726 3.347670301889767e-21 1.3834784539008045e-13 1.3832967312413647e-13 1.817226594399285e-17
1.6043148490894465 3.4900992269516485e-21 1.4862669168145714e-13 1.4859810023011588e-13 2.8591451341250355e-17
1.6531753430134553 3.639261939512697e-21 1.5969880548994457e-13 1.5965448496404635e-13 4.432052589821798e-17
1.7035239163302658 3.796309212548899e-21 1.716640075478882e-13 1.7159630322629401e-13 6.770432159413766e-17
1.755405889504358 3.964286219970383e-21 1.8471917787213449e-13 1.8461720443933994e-13 1.0197343279452099e-16
1.8088679632656115 4.1434186922629935e-21 1.9894595850171698e-13 1.9879447354685136e-13 1.5148495486561133e-16
1.8639582606462262 4.3338998763537246e-21 2.1442947877256322e-13 2.14207436752557e-13 2.2204202000619765e-16
1.9207263702978936 4.536574967886237e-21 2.3129328488551886e-13 2.3097203274421386e-13 3.2125214130506225e-16
1.979223391128241 4.752609012001061e-21 2.4968723220075883e-13 2.4922827934680656e-13 4.589528539523083e-16
2.039501978296691 4.98310763809135e-21 2.697701120083604e-13 2.6912244147374503e-13 6.476705346153201e-16
2.1016163906111602 5.2307218473083584e-21 2.917994750148148e-13 2.908962802018987e-13 9.03194812916115e-16
2.1656225393682647 5.497012155496765e-21 3.1599404130066495e-13 3.147489617636415e-13 1.2450795370234406e-15
2.231578038680979 5.781931319235165e-21 3.424951614485961e-13 3.4079795784252645e-13 1.6972036060695966e-15
2.299542257339062 6.086280410697057e-21 3.7150339365597815e-13 3.6921504426384085e-13 2.2883493921373168e-15
2.369576372248914 6.411466457445793e-21 4.032714885464527e-13 4.0021867737028577e-13 3.052811176166854e-15
2.4417434235010123 6.759100171616274e-21 4.380849590035279e-13 4.3405412789044125e-13 4.030831113086528e-15
2.5161083711144245 7.131974709254558e-21 4.763306967160935e-13 4.710615121318435e-13 5.269184584250111e-15
2.5927381535095444 7.534374913256478e-21 5.185317082913093e-13 5.117102179364968e-13 6.821490354812402e-15
2.6717017477616296 7.970075974126232e-21 5.652230560954538e-13 5.56475020844945e-13 8.748035250508662e-15
2.753070231689431 8.44432305375156e-21 6.170943403101357e-13 6.0597857133095e-13 1.1115768979185748e-14
2.836916847834745 8.970400192438791e-21 6.755038957153644e-13 6.615053567301619e-13 1.3998538985202331e-14
2.9233170693905177 9.576630341987753e-21 7.43118510658868e-13 7.256454813432028e-13 1.7473029315665352e-14
2.967498994190263 9.935193318415479e-21 7.825936784477939e-13 7.631744415237585e-13 1.9419236924035414e-14
3.0123486681368425 1.0318179283556616e-20 8.250451984287432e-13 8.034910631939011e-13 2.1554135234842112e-14
3.0578761833420214 1.0892636766881259e-20 8.841426705797028e-13 8.602428178758228e-13 2.3899852703879835e-14
3.1040917844459814 1.1553494268340652e-20 9.519570196105078e-13 9.255088321640906e-13 2.6448187446417148e-14
3.127460860933648 1.2121929854150093e-20 1.0063129995957867e-12 9.785020791922203e-13 2.7810920403566442e-14
3.1510058709225794 1.28301468319494e-20 1.0731248998993489e-12 1.0438947674730688e-12 2.923013242628015e-14
3.162844764501044 1.3447232023616528e-20 1.1289642984156162e-12 1.099000198157717e-12 2.9964100257899266e-14
3.1747281389236908 1.4141904563610834e-20 1.1917464762395508e-12 1.1610338199233653e-12 3.0712656316185546e-14
3.1986289994194426 1.6002345793055718e-20 1.3586792855096298e-12 1.326421146485359e-12 3.225813902427036e-14
3.2227097969389145 2.0228663934983365e-20 1.7304451251404581e-12 1.696550603128889e-12 3.3894522011569094e-14
3.2348180950136065 2.4166026747504308e-20 2.0750308062306333e-12 2.040263334740124e-12 3.4767471490509584e-14
3.240889293275058 2.7099314099659764e-20 2.3312665262758962e-12 2.2960385952659625e-12 3.5227931009933884e-14
3.2469718861334385 3.0496066769675974e-20 2.628402013336638e-12 2.592697643648492e-12 3.57043696881458e-14
3.2714166318528037 4.8295861215266616e-20 4.1938723267967356e-12 4.156200103419851e-12 3.767222337688493e-14
3.2744851364798273 4.941251371162756e-20 4.29486388334527e-12 4.256960039963257e-12 3.790384338201263e-14
3.2775565192852394 5.055880145015118e-20 4.398619473370482e-12 4.360482878668596e-12 3.813659470188521e-14
3.283707930232385 4.948343603679555e-20 4.313142466186527e-12 4.274590216088026e-12 3.855225009850243e-14
3.2898708863219004 4.6027363728604003e-20 4.019429244051234e-12 3.980499256786801e-12 3.892998726443336e-14
3.29141343181113 4.52107880463711e-20 3.949971364693285e-12 3.910946539279143e-12 3.9024825414142985e-14
3.292184975758714 4.48093205337155e-20 3.915813688563835e-12 3.8767413834357614e-12 3.907230512807385e-14
3.295272960557952 4.230162206210805e-20 3.7001373764724075e-12 3.660880484812951e-12 3.9256891659455303e-14
3.3076538914384823 3.3552232293876736e-20 2.9458519197327896e-12 2.905853906622214e-12 3.9998013110575855e-14
3.310756385682612 3.175429707740887e-20 2.7906101013175412e-12 2.75042533743928e-12 4.0184763878261344e-14
3.313861789986515 3.00887305682803e-20 2.646718115757403e-12 2.606346012195596e-12 4.0372103561805844e-14
3.3200813396944477 2.776845553944589e-20 2.447202356016533e-12 2.40642705592526e-12 4.077530009127266e-14
3.345076488085796 2.3761390908178126e-20 2.1098294246828103e-12 2.0672566621839115e-12 4.257276249889881e-14
3.3482140837626964 2.3937373026645308e-20 2.127448910591268e-12 2.084632626269076e-12 4.281628432219253e-14
3.3513546224236106 2.411489159413006e-20 2.14523627447445e-12 2.1021754001583166e-12 4.306087431613395e-14
3.3576445397418455 2.5310573376557036e-20 2.2558287841139158e-12 2.212256435410715e-12 4.357234870320091e-14
3.3702598118196083 2.960902813597215e-20 2.6488475715355295e-12 2.604202434428482e-12 4.464513710704762e-14
3.382922481734668 3.0666859871391456e-20 2.753789806555198e-12 2.7081027624765737e-12 4.568704407862545e-14
3.389271646505754 3.1211690103159834e-20 2.8079741004674578e-12 2.7617591128082145e-12 4.6214987659244354e-14
3.395632727569191 3.1809666323469114e-20 2.8671423604989023e-12 2.820383295132074e-12 4.675906536682838e-14
3.421196662673239 3.4695268337142933e-20 3.1507774130215064e-12 3.101767016912642e-12 4.9010396108864776e-14
3.4276182099114902 3.4209405308322805e-20 3.112485945385674e-12 3.0629740295203002e-12 4.9511915865373747e-14
3.4340518103208963 3.193396068097511e-20 2.9109119061730906e-12 2.860926078808087e-12 4.998582736500353e-14
3.4469541582030403 2.867895295428629e-20 2.624026594258069e-12 2.573132044587733e-12 5.089454967033624e-14
3.472904465399547 2.7846744079374946e-20 2.5670639819620824e-12 2.514074797343562e-12 5.2989184618520585e-14
3.4990501388274233 2.6547809874495403e-20 2.4657457737693714e-12 2.4106151348696162e-12 5.513063889975529e-14
3.5253949054701885 2.1731454328461065e-20 2.0336021721753226e-12 1.9763943489925585e-12 5.720782318276423e-14
3.5519380250092896 1.7150696778539864e-20 1.6170244301108473e-12 1.5577314596036312e-12 5.929297050721671e-14
3.578680990867387 1.5422335897348767e-20 1.4650167066052788e-12 1.4034387148830362e-12 6.157799172224284e-14
3.605625307711299 1.4817045812370816e-20 1.4181156508400616e-12 1.354132713053741e-12 6.398293778632074e-14
3.660119384959845 1.4569960490906374e-20 1.4155429739868012e-12 1.3465148383430116e-12 6.902813564378966e-14
3.715437065384467 1.4471792325748255e-20 1.4272552987719117e-12 1.3529193976693289e-12 7.433590110258277e-14
3.8285932144167436 1.486884739605204e-20 1.5110747984048188e-12 1.425369511187077e-12 8.57052872177415e-14
3.94519561050918 1.542394082122319e-20 1.6152261034024275e-12 1.5171808249954772e-12 9.80452784069506e-14
4.06534921144712 1.6039545054944413e-20 1.7308496160531487e-12 1.6195225446105057e-12 1.1132707144264345e-13
4.189162171576248 1.6684897490303802e-20 1.85532565088105e-12 1.729765200015676e-12 1.2556045086537433e-13
4.316745939156006 1.7344794177749186e-20 1.9874447889336997e-12 1.846769982761515e-12 1.406748061721847e-13
4.448215356677963 1.800956957338808e-20 2.126466628272386e-12 1.9700265919712354e-12 1.5644003630115047e-13
4.58368876423945 1.8675175565070974e-20 2.272214083895361e-12 2.099355643700568e-12 1.7285844019479327e-13
4.723288106065518 1.9340748626076768e-20 2.424862685153195e-12 2.234846199978943e-12 1.900164851742523e-13
4.867139040275056 2.0003624211426665e-20 2.584353232735169e-12 2.3769273844798935e-12 2.0742584825527485e-13
4.940699165968905 2.034130003572598e-20 2.6676973030850372e-12 2.451423084092004e-12 2.1627421899303283e-13
5.015371051989984 2.0671173598075472e-20 2.751931606506303e-12 2.5267439208310194e-12 2.2518768567528367e-13
5.091171501069577 2.1019031524592616e-20 2.8405331467691444e-12 2.6061690471127433e-12 2.343640996564006e-13
5.129500256944802 2.1189485563765952e-20 2.88512678061664e-12 2.6461613395114642e-12 2.3896544110517535e-13
5.168117569889187 2.136003235861647e-20 2.930243587556951e-12 2.686620733290453e-12 2.4362285426649794e-13
5.20702561229733 2.1549633128473632e-20 2.9785097621819025e-12 2.7297848043552267e-12 2.48724957826676e-13
5.246226572918644 2.1737394743631404e-20 3.0270804831752267e-12 2.7732320161913983e-12 2.538484669838285e-13
5.265937586045735 2.1830576413885612e-20 3.051478703865686e-12 2.7950612211743526e-12 2.564174826913325e-13
5.285722656980489 2.1923287410024628e-20 3.075951492032548e-12 2.8169605660605114e-12 2.5899092597203624e-13
5.305582063971359 2.201552459064649e-20 3.100498373059842e-12 2.838929888886942e-12 2.6156848417289934e-13
5.3255160863122235 2.2110980411422912e-20 3.1256412785884387e-12 2.8614694488307847e-12 2.6417182975765346e-13
5.365609099470188 2.2329053024637748e-20 3.1802317416569245e-12 2.9106725047116272e-12 2.695592369452982e-13
5.406003951863644 2.2546690221133762e-20 3.235404534264091e-12 2.9604371526759857e-12 2.7496738158810477e-13
5.446702915881641 2.276396832370183e-20 3.2911758946715604e-12 3.0107821375460946e-12 2.803937571254659e-13
5.487708281020852 2.2987930580312787e-20 3.3485772846340485e-12 3.062716587108201e-12 2.858606975258473e-13
5.529022354014368 2.3273540297840628e-20 3.4157040186486887e-12 3.1241449084170624e-12 2.915591102316266e-13
5.570647458961463 2.3563511448940596e-20 3.484296603877366e-12 3.1870184853959957e-12 2.9727811848136966e-13
5.612585937458331 2.3858352334019818e-20 3.5544538895841788e-12 3.2514387207995153e-12 3.030151687846635e-13
5.654840148729818 2.416903795229907e-20 3.627848391411819e-12 3.3190502407594093e-12 3.0879815065240897e-13
5.67608639626678 2.4372764644286218e-20 3.672173777725041e-12 3.3603465849584047e-12 3.1182719276663623e-13
5.686739436050992 2.4476133478905417e-20 3.6946693303634e-12 3.381325441656788e-12 3.1334388870661133e-13
5.6974124697621304 2.4580543553531132e-20 3.717393858448579e-12 3.4025318778411052e-12 3.148619806074736e-13
5.718818669136295 2.4792604648788613e-20 3.763551943010698e-12 3.4456497534257792e-12 3.1790218958491943e-13
5.740305295436557 2.5022152506347367e-20 3.812668888137734e-12 3.491697151392744e-12 3.2097173674499043e-13
5.7835210386641895 2.5603488263214865e-20 3.9306184753970245e-12 3.6033046558277238e-12 3.273138195693008e-13
5.827062130521658 2.624867177390377e-20 4.060003557046612e-12 3.7262631781599666e-12 3.337403788866443e-13
5.8489554468988025 2.6698404885617422e-20 4.1450813778246165e-12 3.807859308937012e-12 3.372220688876051e-13
5.870931020387893 2.7170985296597e-20 4.234301693603482e-12 3.893587111201656e-12 3.407145824018258e-13
5.892989160043636 2.766824974577922e-20 4.327995120196311e-12 3.9837775229535996e-12 3.4421759724271177e-13
5.915130176081913 2.8227463644242305e-20 4.432059646648431e-12 4.084207249090507e-12 3.4785239755792433e-13
5.95966208400165 2.978506906454696e-20 4.711830729580089e-12 4.355628944898762e-12 3.5620178468132633e-13
6.004529249263818 3.199203737566367e-20 5.099062042566617e-12 4.7334271305078115e-12 3.656349120588042e-13
6.027089341400364 3.351725961586981e-20 5.362231574291865e-12 4.99111272394023e-12 3.7111885035163393e-13
6.049734195844842 3.5295486879444007e-20 5.667935557705883e-12 5.291000575542278e-12 3.7693498216360553e-13
6.095279466722835 4.0403567954093833e-20 6.537064561382041e-12 6.145719356384366e-12 3.91345204997676e-13
6.141167624020661 4.815408865434631e-20 7.84970892017961e-12 7.439519888544925e-12 4.1018903163468593e-13
6.164241091010745 5.30863135875256e-20 8.68623585342872e-12 8.264151913373129e-12 4.220839400555894e-13
6.187401249150058 5.861225878653727e-20 9.626450282136066e-12 9.19216515638583e-12 4.342851257502349e-13
6.1990139391386085 6.129419138972708e-20 1.0085823551645395e-11 9.645332556088066e-12 4.4049099555732566e-13
6.204828454712694 6.269913545236912e-20 1.0326681072353462e-11 9.883056948262192e-12 4.4362412409127115e-13
6.210648424152782 6.371475850367424e-20 1.0503799411837738e-11 1.0057521039918391e-11 4.462783719193467e-13
6.233982942956859 6.71096204970466e-20 1.1105032288020283e-11 1.0649564250927774e-11 4.554680370925082e-13
6.239830258556775 6.751203192643827e-20 1.1182100419800411e-11 1.0725405652566459e-11 4.566947672339482e-13
6.245683058788269 6.750043845673605e-20 1.1190666900575751e-11 1.0732743938845425e-11 4.57922961730328e-13
6.257405133728602 6.729953316553973e-20 1.117829994772429e-11 1.0718255567356352e-11 4.600443803679366e-13
6.269149208991335 6.649660989530293e-20 1.1065665661333807e-11 1.0604978832435525e-11 4.606868288982842e-13
6.280915325867298 6.464501505006427e-20 1.077773280408117e-11 1.0318230558128779e-11 4.5950224595239e-13
6.304513850009849 6.014612779769536e-20 1.0065346009474012e-11 9.609863335672506e-12 4.554826738015095e-13
6.32820103803542 5.468020286262514e-20 9.185013898552806e-12 8.735306517140225e-12 4.49707381412579e-13
6.3519772230701035 4.9700766230941225e-20 8.379950425733565e-12 7.93545702112112e-12 4.4449340461244215e-13
6.375842739491607 4.5495732810086454e-20 7.699768968670357e-12 7.259912377959074e-12 4.3985659071128417e-13
6.399797922933955 4.217189966568764e-20 7.16405413216196e-12 6.7267568339278776e-12 4.3729729823408276e-13
6.42384311029221 3.9393576624750294e-20 6.717223083678131e-12 6.282069827462897e-12 4.351532562152344e-13
6.447978639727206 3.7382386672298285e-20 6.398232957419349e-12 5.9636074196116344e-12 4.3462553780771526e-13
6.472204850670314 3.569850179155256e-20 6.132981822828425e-12 5.698564444864561e-12 4.344173779638613e-13
6.496522083828205 3.460489070836125e-20 5.967436881559663e-12 5.5319214022553695e-12 4.3551547930429405e-13
