Dust emission spectrum from A.P. Jones, M. Kohler, N. Ysard, M. Bocchio, and L. Verstraete (2017), A&A, 602A, 46J 
inside the DustPedia framework.

lambda    nu*dP/dnu     j_nu    j_nu(carb.) j_nu(sil)
 (um)   (erg s-1 H-1) (Jy cm2 sr-1 H-1)
0.9927057738263894 1.5412463003695216e-22 4.061271542515904e-15 4.0612713537366775e-15 1.8877922697401573e-22
1.0001793341362166 1.567192635184324e-22 4.160731510874031e-15 4.1607312836563054e-15 2.27217724736195e-22
1.0077091589558085 1.5932299114054034e-22 4.261702116011161e-15 4.261701842890718e-15 2.731204422544615e-22
1.0114953028030835 1.6062812561567976e-22 4.3127560685347155e-15 4.31275576924358e-15 2.992911360999445e-22
1.0152956718711033 1.6193536795612196e-22 4.364190306267701e-15 4.364189978407174e-15 3.2786052684995813e-22
1.0229392996569957 1.6455469244372142e-22 4.46816876234023e-15 4.468168369286385e-15 3.9305384562527537e-22
1.0267826658714554 1.6586378653696984e-22 4.520635978215382e-15 4.520635548052911e-15 4.301624711397164e-22
1.0306404723013447 1.6717471535719962e-22 4.573484570682715e-15 4.573484100064625e-15 4.706180892531478e-22
1.03451277320114 1.6848742995526967e-22 4.626715509322731e-15 4.626714994615395e-15 5.147073368301532e-22
1.0383996230291617 1.6980188255114677e-22 4.680329788450787e-15 4.680329225710795e-15 5.627399938206155e-22
1.0403485208654093 1.704597459944202e-22 4.707280998516835e-15 4.707280410178173e-15 5.883386625550978e-22
1.0423010764483396 1.7111802656534242e-22 4.734328428467994e-15 4.7343278134172636e-15 6.1505072954801655e-22
1.0462171883269815 1.7243581665017674e-22 4.7887124772326476e-15 4.7887118052316775e-15 6.720009707302226e-22
1.0471985131304309 1.72765516175545e-22 4.802368835063263e-15 4.802368148054747e-15 6.8700851643726345e-22
1.048180758391296 1.7309531514240842e-22 4.81604936520091e-15 4.816048662864253e-15 7.023366569706004e-22
1.0501480137395462 1.7375520872085647e-22 4.843483011452011e-15 4.843482277471112e-15 7.339808989454518e-22
1.0521189612883777 1.7441549207731398e-22 4.8710135553136586e-15 4.871012788326345e-15 7.669873125560075e-22
1.0531058218030118 1.7474533527920018e-22 4.884802824185774e-15 4.884802040165984e-15 7.840197898511343e-22
1.0540936079674168 1.7507382260039261e-22 4.8985757378991e-15 4.8985749364813894e-15 8.014177117958455e-22
1.058054026499678 1.7638865496453457e-22 4.953907873756133e-15 4.953906998980401e-15 8.747757330695776e-22
1.0590464539527713 1.7671758072588403e-22 4.96780111743919e-15 4.967800223344077e-15 8.940951138251258e-22
1.06003981227728 1.7704659233457738e-22 4.981718481269024e-15 4.98171756744675e-15 9.138222735384485e-22
1.0620293250338977 1.7770487069635792e-22 5.009625642987726e-15 5.009624688454932e-15 9.545327952382761e-22
1.0660195594769086 1.7902243152535423e-22 5.065730225887678e-15 5.0657291846701525e-15 1.0412175243464703e-21
1.070024785945596 1.8034130061172552e-22 5.122222839224587e-15 5.122221703824991e-15 1.1353995965081561e-21
1.0740450607676866 1.8166144257589888e-22 5.179104737754964e-15 5.179103500062257e-15 1.2376927062887649e-21
1.07808044048254 1.8298282352776797e-22 5.236377215755252e-15 5.23637586699752e-15 1.3487577324434561e-21
1.0861967418109137 1.856271267300554e-22 5.352040253760155e-15 5.352038653656528e-15 1.6001036265422895e-21
1.0902777775684922 1.8694533275043359e-22 5.410298418649238e-15 5.410296676675094e-15 1.7419741449805538e-21
1.0943741465085532 1.8826457672099122e-22 5.4689489564459e-15 5.468947060642965e-15 1.8958029377716234e-21
1.1026131145906286 1.9090607772137261e-22 5.5874331698026116e-15 5.587430926587962e-15 2.2432146498998934e-21
1.1109141095355224 1.9355144503085708e-22 5.707505436182204e-15 5.707502785344708e-15 2.6508374977952184e-21
1.1192775983109025 1.9619841952640104e-22 5.829116690451545e-15 5.829113561979879e-15 3.1284716652501744e-21
1.1277040513999907 1.9883721019755904e-22 5.9519905751256464e-15 5.951986887723271e-15 3.687402374152329e-21
1.1361939428280308 2.014791689484181e-22 6.076479730597737e-15 6.076475389990945e-15 4.34060679252472e-21
1.1447477501889525 2.041242295327985e-22 6.202600220022818e-15 6.202595117035064e-15 5.102987755487357e-21
1.1533659546722406 2.0677333969192474e-22 6.3303992753623986e-15 6.3303932837175355e-15 5.991644862322353e-21
1.1707974979042381 2.1209177413354997e-22 6.591360174864968e-15 6.59135194585512e-15 8.229009848405529e-21
1.1884924949847024 2.1742623417285395e-22 6.8592687738000615e-15 6.859257528511507e-15 1.1245288555608204e-20
1.2064549276569216 2.228132187127e-22 7.135451968091084e-15 7.13543667672301e-15 1.5291368076884504e-20
1.2246888378427687 2.2821606019296794e-22 7.418932099371487e-15 7.418911407929193e-15 2.069144229198981e-20
1.2431983285522175 2.3362984162261534e-22 7.709712179416334e-15 7.709684316460417e-15 2.786295591523424e-20
1.2619875648066055 2.3906183048919084e-22 8.008197018312896e-15 8.008159677624147e-15 3.734068875038028e-20
1.3004222497298317 2.499437123183975e-22 8.627719964772612e-15 8.627653843811738e-15 6.612096087318969e-20
1.3400274889804893 2.6089115131318214e-22 9.27988276756786e-15 9.279767828744302e-15 1.1493882355975065e-19
1.3808389325824078 2.7194208854217013e-22 9.967560608974096e-15 9.96736437752505e-15 1.9623144904583612e-19
1.4228933163050095 2.831911513069898e-22 1.0696001410895927e-14 1.0695672211094265e-14 3.29199801661664e-19
1.466228494730424 2.9484338808690683e-22 1.1475258604050527e-14 1.1474715658053645e-14 5.429459968781688e-19
1.5108834753276823 3.0687389954070435e-22 1.2307231121513321e-14 1.230635037479423e-14 8.807467190931284e-19
1.5568984535646726 3.192744685206017e-22 1.3194529575673483e-14 1.3193122880263249e-14 1.4066954102361473e-18
1.6043148490894465 3.321282999347202e-22 1.4143761315405158e-14 1.4141545093269309e-14 2.216222135849615e-18
1.6531753430134553 3.455259607005341e-22 1.516243790822859e-14 1.51589977556496e-14 3.440152578992126e-18
1.7035239163302658 3.5957689579390753e-22 1.6259584638040457e-14 1.6254322103556448e-14 5.262534484009963e-18
1.755405889504358 3.745759460309427e-22 1.7453674372187404e-14 1.7445736913019434e-14 7.937459167968829e-18
1.8088679632656115 3.9054377202393813e-22 1.8751931878683232e-14 1.8740123502931496e-14 1.1808375751730179e-17
1.8639582606462262 4.0750052965442475e-22 2.0162008506495068e-14 2.014467475980422e-14 1.7333746690849438e-17
1.9207263702978936 4.2553047304447995e-22 2.1695296920267856e-14 2.1670180911965294e-14 2.5116008302560362e-17
1.979223391128241 4.447498706411455e-22 2.336576897902165e-14 2.3329832882805813e-14 3.5936096215841046e-17
2.039501978296691 4.652713864718794e-22 2.518836099050829e-14 2.5137570023650703e-14 5.079096685759264e-17
2.1016163906111602 4.873575292185268e-22 2.7187580475850124e-14 2.7116639862663268e-14 7.094061318685882e-17
2.1656225393682647 5.111662405993197e-22 2.938423302956114e-14 2.928628316739813e-14 9.794986216300781e-17
2.231578038680979 5.367023327304638e-22 3.17917910036112e-14 3.165805559919333e-14 1.3373540441788457e-16
2.299542257339062 5.64051286453932e-22 3.4429397427263253e-14 3.424878258250838e-14 1.8061484475487504e-16
2.369576372248914 5.933608075751324e-22 3.7321492314454953e-14 3.708013349279142e-14 2.4135882166354017e-16
2.4417434235010123 6.247992632162164e-22 4.049579865097018e-14 4.017656843678637e-14 3.19230214183824e-16
2.5161083711144245 6.586534331645558e-22 4.3990179649208534e-14 4.3572143755174806e-14 4.180358940337382e-16
2.5927381535095444 6.95363647632281e-22 4.7856405374258094e-14 4.731424782938006e-14 5.421575448780429e-16
2.6717017477616296 7.353353543659347e-22 5.214862412843095e-14 5.1452079847767846e-14 6.965442806631084e-16
2.753070231689431 7.791368158799049e-22 5.693776947497814e-14 5.605104991391567e-14 8.86719561062463e-16
2.836916847834745 8.281711762216584e-22 6.236431417278969e-14 6.12455067991159e-14 1.1188073736737706e-15
2.9233170693905177 8.854406304748177e-22 6.87076037288834e-14 6.730837978447976e-14 1.3992239444036268e-15
2.967498994190263 9.199212802305294e-22 7.246206042549674e-14 7.090534687891704e-14 1.556713546579688e-15
3.0123486681368425 9.569449913368985e-22 7.651765379975057e-14 7.478799801116984e-14 1.729655788580742e-15
3.0578761833420214 1.0139546305630434e-21 8.230151928304335e-14 8.038165844152437e-14 1.9198608415189996e-15
3.1040917844459814 1.080198133825821e-21 8.900356655591683e-14 8.68767917161026e-14 2.1267748398142145e-15
3.127460860933648 1.1383229569440743e-21 9.449891255714186e-14 9.226137902863484e-14 2.237533528507054e-15
3.1510058709225794 1.2112758566797702e-21 1.013121906924021e-13 9.895922746472005e-14 2.3529632276820704e-15
3.162844764501044 1.2753288699633575e-21 1.070704186853273e-13 1.0465772825511499e-13 2.4126904302123e-15
3.1747281389236908 1.3477119549026685e-21 1.1357246585965367e-13 1.1109883941049362e-13 2.4736264491600574e-15
3.1986289994194426 1.54253147864946e-21 1.3096864637164908e-13 1.2836914407639045e-13 2.5995022952586254e-15
3.2227097969389145 1.9872008647160926e-21 1.6999353294292065e-13 1.6726066872159477e-13 2.732864221325922e-15
3.2348180950136065 2.4024370014596443e-21 2.06286736340385e-13 2.034827078551239e-13 2.8040284852611203e-15
3.240889293275058 2.7119447875256005e-21 2.3329985700066877e-13 2.3045829112456426e-13 2.8415658761044073e-15
3.2469718861334385 3.0703493708212356e-21 2.6462797739995776e-13 2.6174757129654057e-13 2.880406103417224e-15
3.2714166318528037 4.952985469475823e-21 4.3010287367843397e-13 4.270619765335524e-13 3.0408971448816435e-15
3.2744851364798273 5.071128868066473e-21 4.4077515162162523e-13 4.3771534501598475e-13 3.0598066056404984e-15
3.2775565192852394 5.192443394770741e-21 4.5174296018728555e-13 4.4866414998777814e-13 3.078810199507374e-15
3.283707930232385 5.0786204735040125e-21 4.4266961610398715e-13 4.39556829211268e-13 3.1127868927190856e-15
3.2898708863219004 4.7128670333635795e-21 4.115602989761128e-13 4.0841659862286534e-13 3.14370035324745e-15
3.29141343181113 4.626465918977043e-21 4.0420458676688655e-13 4.0105312407276666e-13 3.151462694119886e-15
3.292184975758714 4.583989468957173e-21 4.0058738889532946e-13 3.9743203992841706e-13 3.1553489669123744e-15
3.295272960557952 4.31825967020131e-21 3.7771965300918823e-13 3.745491885415272e-13 3.170464467661075e-15
3.3076538914384823 3.391830190219594e-21 2.9779924595626767e-13 2.9456807408586397e-13 3.2311718704037233e-15
3.310756385682612 3.2016582180206836e-21 2.8136600669807346e-13 2.781195338111309e-13 3.2464728869425964e-15
3.313861789986515 3.0255652394971754e-21 2.661401188598147e-13 2.628782952048824e-13 3.261823654932361e-15
3.3200813396944477 2.7800573883202274e-21 2.450032909066209e-13 2.4170844600976756e-13 3.2948448968533025e-15
3.345076488085796 2.3543910056275335e-21 2.09051879163011e-13 2.0560987032390157e-13 3.442008839109386e-15
3.3482140837626964 2.3727746460129607e-21 2.1088182191587377e-13 2.0741987715204018e-13 3.461944763833596e-15
3.3513546224236106 2.3913244760552274e-21 2.1272979768737563e-13 2.092478275844214e-13 3.4819701029542273e-15
3.3576445397418455 2.5173420167515008e-21 2.2436048746754522e-13 2.208366479393056e-13 3.5238395282396945e-15
3.3702598118196083 2.9717534653548397e-21 2.658554652235974e-13 2.6224380369986687e-13 3.6116615237305805e-15
3.382922481734668 3.0827515662584272e-21 2.7682162030629004e-13 2.731245983147551e-13 3.69702199153497e-15
3.389271646505754 3.1399675343462885e-21 2.824886279343272e-13 2.787483400917651e-13 3.740287842562055e-15
3.395632727569191 3.2026338878224814e-21 2.8866719919568486e-13 2.848823231976914e-13 3.784875997993405e-15
3.421196662673239 3.504912978021683e-21 3.18291259155197e-13 3.1432181033692093e-13 3.9694488182761686e-15
3.4276182099114902 3.453156737044346e-21 3.1417973257341373e-13 3.101690943043352e-13 4.01063826907852e-15
3.4340518103208963 3.212148133508132e-21 2.9280051853358076e-13 2.887509227503629e-13 4.0495957832177646e-15
3.4469541582030403 2.8675818143960965e-21 2.623739769781781e-13 2.582496083331281e-13 4.124368645049995e-15
3.472904465399547 2.778799311243229e-21 2.561647999012189e-13 2.5186818646966524e-13 4.2966134315536075e-15
3.4990501388274233 2.6403061917921257e-21 2.452301664297753e-13 2.407572968183476e-13 4.472869611427722e-15
3.5253949054701885 2.128168775201851e-21 1.9915135814624796e-13 1.9450726249598436e-13 4.6440956502635985e-15
3.5519380250092896 1.6414832702837076e-21 1.5476447306725572e-13 1.4994828554640705e-13 4.8161875208486435e-15
3.578680990867387 1.4566535250223368e-21 1.383721482982387e-13 1.3336734505712288e-13 5.004803241115828e-15
3.605625307711299 1.3906461306242083e-21 1.3309650706295651e-13 1.278930630684954e-13 5.203443994461129e-15
3.660119384959845 1.3607073093673473e-21 1.321993750518133e-13 1.2657864225365766e-13 5.620732798155612e-15
3.715437065384467 1.3467125867488735e-21 1.328171820114048e-13 1.2675661154602316e-13 6.0605704653816475e-15
3.8285932144167436 1.3817609785812602e-21 1.4042407837931747e-13 1.334184517370106e-13 7.005626642306896e-15
3.94519561050918 1.4339639248948196e-21 1.5016758620082849e-13 1.421318464252588e-13 8.035739775569673e-15
4.06534921144712 1.4930819760986801e-21 1.6112055274720092e-13 1.5197100393640025e-13 9.149548810800683e-15
4.189162171576248 1.5559446781874524e-21 1.7301778895978568e-13 1.6266888364469962e-13 1.034890531508605e-14
4.316745939156006 1.6210577218498603e-21 1.8574810913491763e-13 1.7411904577655423e-13 1.1629063358363423e-14
4.448215356677963 1.6875416305771227e-21 1.99255231871015e-13 1.8628330264362229e-13 1.2971929227392596e-14
4.58368876423945 1.7550666256027608e-21 2.135394706718594e-13 1.9916070003421928e-13 1.437877063764012e-14
4.723288106065518 1.8236315948218824e-21 2.286393505878991e-13 2.1278136351822382e-13 1.585798706967521e-14
4.867139040275056 1.893152341420199e-21 2.4458439740207987e-13 2.2721458260391177e-13 1.7369814798168105e-14
4.940699165968905 1.9290754478126054e-21 2.5299215686995687e-13 2.3484972437962463e-13 1.8142432490332295e-14
5.015371051989984 1.96451418037219e-21 2.6153370725401785e-13 2.4260998477049e-13 1.8923722483527945e-14
5.091171501069577 2.0022279764481442e-21 2.705831107315823e-13 2.5085252238552773e-13 1.9730588346054472e-14
5.129500256944802 2.0208584150876206e-21 2.7515687984298403e-13 2.55020450888306e-13 2.013642895467804e-14
5.168117569889187 2.0395908437465454e-21 2.7979817121940417e-13 2.592503430663551e-13 2.054782815304904e-14
5.20702561229733 2.0604115692086276e-21 2.847823875429063e-13 2.6378519924180646e-13 2.0997188301099877e-14
5.246226572918644 2.0811430546405312e-21 2.8981336529501676e-13 2.6836405057945193e-13 2.1449314715564778e-14
5.265937586045735 2.091474734382261e-21 2.9234640857129186e-13 2.7067005257890987e-13 2.1676355992382016e-14
5.285722656980489 2.101783430035487e-21 2.9489117013494827e-13 2.729871528938309e-13 2.1904017241117424e-14
5.305582063971359 2.112068963065672e-21 2.974476650244111e-13 2.753153908942167e-13 2.2132274130194396e-14
5.3255160863122235 2.122728895614232e-21 3.00072133208376e-13 2.77709188155078e-13 2.236294505329808e-14
5.365609099470188 2.147065274231351e-21 3.057973452338402e-13 2.829571287682253e-13 2.2840216465614786e-14
5.406003951863644 2.1714849308225528e-21 3.1160370424054845e-13 2.8828341365461697e-13 2.33202905859316e-14
5.446702915881641 2.1959981742590583e-21 3.174936879673563e-13 2.936907147593436e-13 2.380297320801265e-14
5.487708281020852 2.221372328242694e-21 3.2358010187478656e-13 2.9928993378113753e-13 2.4290168093649027e-14
5.529022354014368 2.253600727599127e-21 3.3074611611213053e-13 3.0594807598148925e-13 2.4798040130641344e-14
5.570647458961463 2.2864782845827825e-21 3.380976786534637e-13 3.1278886972792603e-13 2.530880892553778e-14
5.612585937458331 2.3200653377225898e-21 3.456468891189374e-13 3.1982461231726683e-13 2.582227680167064e-14
5.654840148729818 2.355568678442478e-21 3.535782457627655e-13 3.2723741318692286e-13 2.6340832575842684e-14
5.67608639626678 2.3786971592192116e-21 3.583914037130624e-13 3.3177914681474707e-13 2.6612256898315325e-14
5.686739436050992 2.3904495951535817e-21 3.60838071609851e-13 3.3408979965594333e-13 2.6748271953907695e-14
5.6974124697621304 2.4023318740816116e-21 3.6331229759902286e-13 3.364278128089519e-13 2.6884484790070944e-14
5.718818669136295 2.4264996184207424e-21 3.6834602426769673e-13 3.411885329941997e-13 2.7157491273497115e-14
5.740305295436557 2.452653969595574e-21 3.737151502402701e-13 3.4628181304681803e-13 2.7433337193452077e-14
5.7835210386641895 2.5186483880929377e-21 3.866600435648598e-13 3.586565681950667e-13 2.8003475369793074e-14
5.827062130521658 2.592037762671491e-21 4.0092247817689426e-13 3.723402659696854e-13 2.858221220720878e-14
5.8489554468988025 2.642911272480204e-21 4.1032722163495313e-13 3.814320606475577e-13 2.889516098739548e-14
5.870931020387893 2.6964514509443784e-21 4.2021254734856195e-13 3.9100313645126125e-13 2.9209410897300705e-14
5.892989160043636 2.7528701749079634e-21 4.3061663795170747e-13 4.010916997782438e-13 2.9524938173463663e-14
5.915130176081913 2.8162909784926923e-21 4.4219238952216294e-13 4.123402428936821e-13 2.985214662848075e-14
5.95966208400165 2.99233158428582e-21 4.733700593870169e-13 4.4276958643568427e-13 3.060047295133262e-14
6.004529249263818 3.2415320158547594e-21 5.166527116645244e-13 4.852086105040633e-13 3.1444101160461114e-14
6.027089341400364 3.41355305588114e-21 5.461145149259039e-13 5.141815916891863e-13 3.19329232367176e-14
6.049734195844842 3.61425495154637e-21 5.803961346235131e-13 5.479451233437416e-13 3.245101127977153e-14
6.095279466722835 4.190496950969097e-21 6.779982684668811e-13 6.442690612465533e-13 3.372920722032792e-14
6.141167624020661 5.0655538025127416e-21 8.257475944494915e-13 7.903535927192695e-13 3.539400173022199e-14
6.164241091010745 5.622746009472559e-21 9.20020522835485e-13 8.835788143458896e-13 3.644170848959549e-14
6.187401249150058 6.2481558297045206e-21 1.02619422446665e-12 9.886771425266814e-13 3.751708193996816e-14
6.1990139391386085 6.552109769443076e-21 1.0781351630113916e-12 1.0400709872930948e-12 3.806417571829674e-14
6.204828454712694 6.711430684257316e-21 1.105386919859251e-12 1.067046461864773e-12 3.8340457994478356e-14
6.210648424152782 6.82695476452656e-21 1.1254686531714897e-12 1.0868934418219363e-12 3.8575211349553477e-14
6.233982942956859 7.214458154699024e-21 1.1938197557238414e-12 1.1544287907180941e-12 3.939096500574732e-14
6.239830258556775 7.261227805816178e-21 1.2026860424547011e-12 1.1631839158572833e-12 3.950212659741763e-14
6.245683058788269 7.261260467218776e-21 1.2038195458396371e-12 1.1642060979610328e-12 3.9613447878604024e-14
6.257405133728602 7.241306325748e-21 1.202764570795151e-12 1.1629574643992787e-12 3.9807106395872326e-14
6.269149208991335 7.153484350007122e-21 1.1904075449168727e-12 1.1505350320381353e-12 3.9872512878737614e-14
6.280915325867298 6.947256048685314e-21 1.158258983407764e-12 1.1184795896080394e-12 3.9779393799724546e-14
6.304513850009849 6.444530416116331e-21 1.0784805420054977e-12 1.039030729066131e-12 3.944981293936648e-14
6.32820103803542 5.831434297186022e-21 9.79546568302173e-13 9.405788412917232e-13 3.8967727010449715e-14
6.3519772230701035 5.272321432872858e-21 8.889559575542665e-13 8.504217110688951e-13 3.853424648537114e-14
6.375842739491607 4.8003416005071904e-21 8.124173194196413e-13 7.742666613315182e-13 3.815065808812299e-14
6.399797922933955 4.4269084822913764e-21 7.520318566788766e-13 7.140840740258878e-13 3.79477826529887e-14
6.42384311029221 4.115003712679757e-21 7.016727166343932e-13 6.638917704080082e-13 3.7780946226384946e-14
6.447978639727206 3.88942779815417e-21 6.657002759562707e-13 6.279453560957232e-13 3.7754919860547644e-14
6.472204850670314 3.700797621454222e-21 6.357948766274625e-13 5.980380882603594e-13 3.7756788367103275e-14
6.496522083828205 3.578803405646045e-21 6.171463916672167e-13 5.792737440519393e-13 3.787264761527742e-14
