Dust emission spectrum from A.P. Jones, M. Kohler, N. Ysard, M. Bocchio, and L. Verstraete (2017), A&A, 602A, 46J 
inside the DustPedia framework.

lambda    nu*dP/dnu     j_nu    j_nu(carb.) j_nu(sil)
 (um)   (erg s-1 H-1) (Jy cm2 sr-1 H-1)
0.9927057738263894 3.503853135638067e-20 9.232852027291334e-13 9.232851332246861e-13 6.950444747794617e-20
1.0001793341362166 3.5626069972519846e-20 9.458346639424603e-13 9.45834580321284e-13 8.362117614812431e-20
1.0077091589558085 3.6216149881342113e-20 9.687392979394046e-13 9.68739197469277e-13 1.0047012762328513e-19
1.0114953028030835 3.651211979395877e-20 9.8032561615779e-13 9.803255060853892e-13 1.1007240059009721e-19
1.0152956718711033 3.680869789699977e-20 9.920017138686452e-13 9.920015933167782e-13 1.2055186736510562e-19
1.0229392996569957 3.7403354925684045e-20 1.0156167509037976e-12 1.0156166064487515e-12 1.4445504605138068e-19
1.0267826658714554 3.770076015038154e-20 1.0275384175188572e-12 1.0275382594635636e-12 1.5805529357990307e-19
1.0306404723013447 3.799872613476253e-20 1.0395506719518404e-12 1.0395504990739093e-12 1.728779311940932e-19
1.03451277320114 3.829724546919547e-20 1.0516538807892508e-12 1.05165369176205e-12 1.8902720075213752e-19
1.0383996230291617 3.859631104468289e-20 1.0638484190676095e-12 1.0638482124518922e-12 2.0661571767349421e-19
1.0403485208654093 3.8746046535254754e-20 1.0699800563414193e-12 1.0699798403540901e-12 2.1598732951250878e-19
1.0423010764483396 3.889591606013058e-20 1.0761346706184912e-12 1.0761344448533922e-12 2.257650988782394e-19
1.0462171883269815 3.919605402956939e-20 1.0885130284184005e-12 1.0885127818117665e-12 2.466066341669171e-19
1.0471985131304309 3.927117106650112e-20 1.091622056421111e-12 1.09162180432333e-12 2.52097781174268e-19
1.048180758391296 3.934632093310285e-20 1.0947368725546472e-12 1.094736614848839e-12 2.5770580817458286e-19
1.0501480137395462 3.9496718789325546e-20 1.1009838949434213e-12 1.1009836256614176e-12 2.6928200376647606e-19
1.0521189612883777 3.9647246879304265e-20 1.1072541474374992e-12 1.1072538660828193e-12 2.813546802344524e-19
1.0531058218030118 3.9722460775423926e-20 1.1103952404187321e-12 1.1103949528348272e-12 2.875839050516957e-19
1.0540936079674168 3.9797383403065225e-20 1.113533102062321e-12 1.1135328081160052e-12 2.939463160335796e-19
1.058054026499678 4.009738228560097e-20 1.1261423693127401e-12 1.126142048544622e-12 3.2076811818076573e-19
1.0590464539527713 4.0172458703725896e-20 1.1293091746667295e-12 1.1293088468362328e-12 3.2783049661042087e-19
1.06003981227728 4.0247565647454164e-20 1.1324817889355807e-12 1.1324814538941947e-12 3.3504138622936187e-19
1.0620293250338977 4.0397870816021637e-20 1.1388444715612137e-12 1.138844121640599e-12 3.499206147576636e-19
1.0660195594769086 4.069884428619726e-20 1.1516398470438973e-12 1.1516394654484383e-12 3.8159545907224787e-19
1.070024785945596 4.100029834852828e-20 1.1645289454134001e-12 1.1645285294142948e-12 4.159991051844616e-19
1.0740450607676866 4.130222902269101e-20 1.1775122281212079e-12 1.1775117747673372e-12 4.533538710362137e-19
1.07808044048254 4.160463270230512e-20 1.1905901688043199e-12 1.1905896749052481e-12 4.938990716807502e-19
1.0861967418109137 4.221038778124448e-20 1.2170187542716959e-12 1.2170181686612862e-12 5.856104095967727e-19
1.0902777775684922 4.251269091734696e-20 1.2303401270236455e-12 1.2303394896720564e-12 6.373515887802251e-19
1.0943741465085532 4.281543867818727e-20 1.2437573374510332e-12 1.2437566440152096e-12 6.934358236501659e-19
1.1026131145906286 4.3422262276861836e-20 1.2708814273986022e-12 1.2708806073633868e-12 8.200352152481377e-19
1.1109141095355224 4.403085116907854e-20 1.2983954853304277e-12 1.2983945168525303e-12 9.684778978635259e-19
1.1192775983109025 4.4640733220306534e-20 1.3262902102708744e-12 1.3262890679706245e-12 1.142300249733845e-18
1.1277040513999907 4.524974759015319e-20 1.3545053811397342e-12 1.3545040355686872e-12 1.345571046582958e-18
1.1361939428280308 4.5860477008941094e-20 1.3831219397759087e-12 1.3831203568106383e-12 1.5829652704794683e-18
1.1447477501889525 4.647294309676481e-20 1.4121453770424888e-12 1.412143517195513e-12 1.859846975635792e-18
1.1533659546722406 4.708738545172107e-20 1.4415879299836363e-12 1.4415857476180144e-12 2.1823656220351257e-18
1.1707974979042381 4.83240750067291e-20 1.5018092275751118e-12 1.5018062340840784e-12 2.993491033397122e-18
1.1884924949847024 4.956911481289576e-20 1.563784989766689e-12 1.5637809043230546e-12 4.085443634766843e-18
1.2064549276569216 5.083088826730382e-20 1.62782694771097e-12 1.6278213996259369e-12 5.548085032822242e-18
1.2246888378427687 5.210161550349795e-20 1.69373858860404e-12 1.6937310912801446e-12 7.497323894750617e-18
1.2431983285522175 5.3380434858967864e-20 1.7615377638251465e-12 1.7615276816916383e-12 1.0082133508107325e-17
1.2619875648066055 5.466941369766967e-20 1.8313397620637216e-12 1.8313262690518524e-12 1.3493011869644832e-17
1.3004222497298317 5.727096263343621e-20 1.976916415023869e-12 1.976892589393833e-12 2.3825630035957585e-17
1.3400274889804893 5.99156122058064e-20 2.131194769996201e-12 2.1311534727711677e-12 4.129722503304072e-17
1.3808389325824078 6.261465101233094e-20 2.2950302850174225e-12 2.29495998689493e-12 7.029812249244203e-17
1.4228933163050095 6.539183800122777e-20 2.469820078396449e-12 2.469702499555955e-12 1.1757884049330666e-16
1.466228494730424 6.829541066024486e-20 2.6580467138206157e-12 2.6578533856037817e-12 1.933282168344998e-16
1.5108834753276823 7.132234879192198e-20 2.8603952047571895e-12 2.860082572416501e-12 3.1263234068944396e-16
1.5568984535646726 7.447288705358864e-20 3.077711523152876e-12 3.0772137793094944e-12 4.977438433826769e-16
1.6043148490894465 7.776725471413599e-20 3.311736726582003e-12 3.3109550480195182e-12 7.816785624846334e-16
1.6531753430134553 8.122707269100818e-20 3.5644223190859014e-12 3.56321288925752e-12 1.209429828382208e-15
1.7035239163302658 8.487734766293893e-20 3.8380397470501874e-12 3.8361957338614705e-12 1.8440131887183917e-15
1.755405889504358 8.878419899114183e-20 4.1369727955218714e-12 4.1342007865962195e-12 2.772008925652637e-15
1.8088679632656115 9.295206734713162e-20 4.463087007746086e-12 4.458977166579425e-12 4.109841166661045e-15
1.8639582606462262 9.73841814044865e-20 4.8183021885650114e-12 4.812290082694137e-12 6.012105870873205e-15
1.9207263702978936 1.0209788340087082e-19 5.205370791579582e-12 5.196689964469446e-12 8.680827110136044e-15
1.979223391128241 1.0711735015551415e-19 5.627610984508204e-12 5.615234585174982e-12 1.237639933322197e-14
2.039501978296691 1.1246508235029015e-19 6.088513447060134e-12 6.071084195552688e-12 1.7429251507447254e-14
2.1016163906111602 1.1819739285692075e-19 6.593724191531469e-12 6.56946975221099e-12 2.4254439320479236e-14
2.1656225393682647 1.243465642041118e-19 7.148023732386854e-12 7.114659699874462e-12 3.3364032512395175e-14
2.231578038680979 1.3090931775517728e-19 7.754469128771299e-12 7.709088235212706e-12 4.538089355859511e-14
2.299542257339062 1.3790129715809138e-19 8.417423520899693e-12 8.356370851307404e-12 6.105266959228812e-14
2.369576372248914 1.4535079784608843e-19 9.142344110797712e-12 9.06107780346001e-12 8.126630733770015e-14
2.4417434235010123 1.5329043335107084e-19 9.935380672746944e-12 9.828322973953249e-12 1.0705769879370028e-13
2.5161083711144245 1.617779052961186e-19 1.0804831128043185e-11 1.0665206096667314e-11 1.3962503137587107e-13
2.5927381535095444 1.709017255349299e-19 1.1761820285268702e-11 1.158148577457065e-11 1.8033451069805139e-13
2.6717017477616296 1.8073664976214926e-19 1.281750912521448e-11 1.2586795970846983e-11 2.307131543675e-13
2.753070231689431 1.9138572901278076e-19 1.3986088575501234e-11 1.3693642749210985e-11 2.9244582629024887e-13
2.836916847834745 2.0311703968139215e-19 1.5295454901399465e-11 1.4928076273472148e-11 3.673786279273165e-13
2.9233170693905177 2.1650032424973445e-19 1.6799792073861218e-11 1.6342386425121604e-11 4.57405648739612e-13
2.967498994190263 2.243063496493043e-19 1.766857731352552e-11 1.7160919173642248e-11 5.076581398832688e-13
3.0123486681368425 2.326107815913889e-19 1.859963886851371e-11 1.803692962303271e-11 5.62709245481e-13
3.0578761833420214 2.44829146508249e-19 1.987249736332939e-11 1.9249373741225666e-11 6.231236221037181e-13
3.1040917844459814 2.5877420206216013e-19 2.132185401452245e-11 2.0633210879626073e-11 6.886431348963777e-13
3.127460860933648 2.705824664190733e-19 2.246264882707449e-11 2.173901354529291e-11 7.236352817815844e-13
3.1510058709225794 2.852070862195737e-19 2.385497452669932e-11 2.3094929262635683e-11 7.600452640636425e-13
3.162844764501044 2.9786995237472917e-19 2.5007714688884207e-11 2.4228851839136082e-11 7.788628497481242e-13
3.1747281389236908 3.1208095984016992e-19 2.629924297099182e-11 2.550119721790008e-11 7.980457530917393e-13
3.1986289994194426 3.499854928053493e-19 2.971552080257262e-11 2.8877896157023516e-11 8.376246455491096e-13
3.2227097969389145 4.357504081569239e-19 3.7275925488537903e-11 3.639642681645789e-11 8.794986720800182e-13
3.2348180950136065 5.154943383510092e-19 4.426323961700857e-11 4.336141076426599e-11 9.018288527425787e-13
3.240889293275058 5.748743535483693e-19 4.945458517190421e-11 4.8540977587213394e-11 9.13607584690824e-13
3.2469718861334385 6.436325948354219e-19 5.547355404522819e-11 5.454775898724054e-11 9.257950579876422e-13
3.2714166318528037 1.003211944322275e-18 8.711601171065086e-11 8.613990514170994e-11 9.761065689409616e-13
3.2744851364798273 1.0257536058242918e-18 8.915701274734486e-11 8.81749922353853e-11 9.820205119595796e-13
3.2775565192852394 1.0488876610874923e-18 9.125330425378718e-11 9.026534161599784e-11 9.879626377893237e-13
3.283707930232385 1.0271480578776033e-18 8.952967421661291e-11 8.853111590253809e-11 9.985583140748186e-13
3.2898708863219004 9.573356812405435e-19 8.360120419324866e-11 8.259303148126392e-11 1.0081727119847506e-12
3.29141343181113 9.408389373866725e-19 8.219911711457344e-11 8.118853088824542e-11 1.0105862263280194e-12
3.292184975758714 9.327280560375297e-19 8.150958876493468e-11 8.049779429307005e-11 1.0117944718646386e-12
3.295272960557952 8.821331799787164e-19 7.71604915166946e-11 7.614400253965659e-11 1.016488977038029e-12
3.3076538914384823 7.055154520902221e-19 6.194354017155589e-11 6.090820976733388e-11 1.0353304042219939e-12
3.310756385682612 6.691943747975356e-19 5.88096967633227e-11 5.7769620082823654e-11 1.0400766804990495e-12
3.313861789986515 6.355367635482465e-19 5.590420843763471e-11 5.4859371102707815e-11 1.0448373349268975e-12
3.3200813396944477 5.8867783462741275e-19 5.187950701069715e-11 5.082441673853405e-11 1.0550902721630963e-12
3.345076488085796 5.080026381526478e-19 4.510674134913803e-11 4.4005923795672344e-11 1.1008175534656882e-12
3.3482140837626964 5.115888996327393e-19 4.5467781530694864e-11 4.4360767909805835e-11 1.10701362088903e-12
3.3513546224236106 5.152055019216915e-19 4.583215840788852e-11 4.471892231520369e-11 1.1132360926848355e-12
3.3576445397418455 5.394127799812543e-19 4.807567404726028e-11 4.6949423123335725e-11 1.1262509239245342e-12
3.3702598118196083 6.262302918929565e-19 5.60230677037107e-11 5.4869519977503545e-11 1.1535477262071604e-12
3.382922481734668 6.477003468741028e-19 5.816150138632506e-11 5.698146910191102e-11 1.1800322844140427e-12
3.389271646505754 6.587502629214737e-19 5.92647713355439e-11 5.807132415924839e-11 1.1934471762955098e-12
3.395632727569191 6.708978132760709e-19 6.047091222050033e-11 5.926364012524194e-11 1.2072720952583757e-12
3.421196662673239 7.295306624054258e-19 6.62507841379882e-11 6.498633413873143e-11 1.2644499992567848e-12
3.4276182099114902 7.197586871018939e-19 6.548604915762337e-11 6.420889092918644e-11 1.2771582284369294e-12
3.4340518103208963 6.738617203720022e-19 6.142526836997554e-11 6.013611564984763e-11 1.2891527201279062e-12
3.4469541582030403 6.081760958637511e-19 5.5646043008694037e-11 5.433391956053751e-11 1.3121234481565141e-12
3.472904465399547 5.914462385818472e-19 5.4522723805794825e-11 5.3157607010851804e-11 1.365116794943029e-12
3.4990501388274233 5.653542341732897e-19 5.250978593660375e-11 5.109055393480336e-11 1.419232001800383e-12
3.5253949054701885 4.685460697128572e-19 4.3845952080822045e-11 4.237433075835071e-11 1.4716213224713366e-12
3.5519380250092896 3.76449550685377e-19 3.5492909006716795e-11 3.396877892623351e-11 1.5241300804832764e-12
3.578680990867387 3.418851707408888e-19 3.247675904673453e-11 3.0895095737094295e-11 1.5816633096402406e-12
3.605625307711299 3.2996949790943414e-19 3.1580850542725907e-11 2.993868204111276e-11 1.6421685016131504e-12
3.660119384959845 3.2553993484951044e-19 3.1627798017431617e-11 2.98589179129357e-11 1.7688801044959174e-12
3.715437065384467 3.2408192314438444e-19 3.196201490682312e-11 3.006014467516654e-11 1.9018702316565817e-12
3.8285932144167436 3.3305346923689423e-19 3.3847190066581265e-11 3.166154996507858e-11 2.1856401015026903e-12
3.94519561050918 3.4509735136639416e-19 3.613928869430361e-11 3.364728704812251e-11 2.492001646181106e-12
4.06534921144712 3.58229467034348e-19 3.8657040043925e-11 3.583716768668081e-11 2.819872357244197e-12
4.189162171576248 3.718121632347935e-19 4.134473371262672e-11 3.8175592570496845e-11 3.1691411421298735e-12
4.316745939156006 3.8551677770421307e-19 4.417425211523484e-11 4.063658348024586e-11 3.5376686349889873e-12
4.448215356677963 3.9912110615299155e-19 4.712592987939081e-11 4.320654985681722e-11 3.919380022573587e-12
4.58368876423945 4.1252665427698045e-19 5.019223891975363e-11 4.58782451375896e-11 4.313993782164028e-12
4.723288106065518 4.257017176587399e-19 5.337271220021503e-11 4.864941992366224e-11 4.723292276552773e-12
4.867139040275056 4.3855721100262e-19 5.6659070077237105e-11 5.1524207135863755e-11 5.134862941373352e-12
4.940699165968905 4.450049610642656e-19 5.836099621978925e-11 5.301836670340246e-11 5.3426295163867916e-12
5.015371051989984 4.512266210282732e-19 6.007132561744609e-11 5.452039025886587e-11 5.550935358580204e-12
5.091171501069577 4.577338157243879e-19 6.185861010965125e-11 5.6094042592796663e-11 5.764567516854565e-12
5.129500256944802 4.608898679101464e-19 6.275403415627334e-11 5.68827540580871e-11 5.8712800981862494e-12
5.168117569889187 4.640298382265268e-19 6.36572283725904e-11 5.767812789231673e-11 5.979100480273655e-12
5.20702561229733 4.675387883758979e-19 6.462146418336482e-11 5.852376295586078e-11 6.097701227504036e-12
5.246226572918644 4.7099081019807845e-19 6.558868282608701e-11 5.937216762937041e-11 6.2165151967165755e-12
5.265937586045735 4.726952510589601e-19 6.607335805880926e-11 5.979737600864044e-11 6.275982050168826e-12
5.285722656980489 4.743852042411398e-19 6.655871674229261e-11 6.02232387255181e-11 6.335478016774509e-12
5.305582063971359 4.760605958676182e-19 6.704473912888512e-11 6.06497441810275e-11 6.3949949478576156e-12
5.3255160863122235 4.777940671614808e-19 6.754168432138169e-11 6.108661595510131e-11 6.455068366280398e-12
5.365609099470188 4.81778326643417e-19 6.861763126018684e-11 6.203819850739866e-11 6.579432752788179e-12
5.406003951863644 4.857304487011828e-19 6.970133889917406e-11 6.299736987026924e-11 6.703969028904801e-12
5.446702915881641 4.896517460335489e-19 7.079301817739454e-11 6.396440643507265e-11 6.8286117423218564e-12
5.487708281020852 4.936791933937816e-19 7.191264681783213e-11 6.495874261118892e-11 6.953904206643218e-12
5.529022354014368 4.988801024137466e-19 7.321734247696759e-11 6.613283007475962e-11 7.084512402207976e-12
5.570647458961463 5.041364083305832e-19 7.45457984580714e-11 6.733053764994867e-11 7.215260808122721e-12
5.612585937458331 5.094574634300573e-19 7.589975355861273e-11 6.855367062185064e-11 7.346082936762082e-12
5.654840148729818 5.1505487193615335e-19 7.731135150394558e-11 6.983369839019802e-11 7.477653113747566e-12
5.67608639626678 5.187760693402785e-19 7.816248612523493e-11 7.06158440232309e-11 7.546642102004033e-12
5.686739436050992 5.206621206042562e-19 7.859388289969982e-11 7.101273008511843e-11 7.58115281458139e-12
5.6974124697621304 5.225658363242048e-19 7.902929511530599e-11 7.141362218550947e-11 7.615672929796514e-12
5.718818669136295 5.264284325108449e-19 7.991256982065705e-11 7.222783269537452e-11 7.68473712528252e-12
5.740305295436557 5.306176817201604e-19 8.085113884894731e-11 7.309673171652885e-11 7.754407132418452e-12
5.7835210386641895 5.413116148164212e-19 8.310154508131321e-11 7.520323570897611e-11 7.898309372337072e-12
5.827062130521658 5.531796444581475e-19 8.556285603825207e-11 7.751902796132679e-11 8.043828076925286e-12
5.8489554468988025 5.615310571461491e-19 8.718093601541564e-11 7.905806341986779e-11 8.122872595547864e-12
5.870931020387893 5.703007368720393e-19 8.887514934186182e-11 8.067308612619948e-11 8.202063215662321e-12
5.892989160043636 5.795228441608216e-19 9.065163371792044e-11 8.237024245248817e-11 8.281391265432275e-12
5.915130176081913 5.899108606423333e-19 9.262327474844973e-11 8.425950006169446e-11 8.36377468675526e-12
5.95966208400165 6.190129822714286e-19 9.792437900865063e-11 8.937025649059207e-11 8.554122518058549e-12
6.004529249263818 6.603679930327064e-19 1.052529830426005e-10 9.648317133078155e-11 8.769811711818925e-12
6.027089341400364 6.890152004427522e-19 1.1023153758166466e-10 1.0133579369213386e-10 8.895743889530768e-12
6.049734195844842 7.224144836516101e-19 1.1600913038191801e-10 1.0697970400737079e-10 9.029426374547228e-12
6.095279466722835 8.184833137675061e-19 1.3242588552058736e-10 1.230634513981592e-10 9.362434122428177e-12
6.141167624020661 9.64254967119077e-19 1.5718542346536422e-10 1.4738532554017304e-10 9.800097925191145e-12
6.164241091010745 1.0569854872195364e-18 1.7294900728984875e-10 1.628716005928761e-10 1.0077406696972643e-11
6.187401249150058 1.160737356357549e-18 1.9063896670981939e-10 1.8027731932909704e-10 1.0361647380722355e-11
6.1990139391386085 1.2110224912173917e-18 1.992710709866668e-10 1.8876488655167867e-10 1.0506184434988144e-11
6.204828454712694 1.2373536132745498e-18 2.0379477397606835e-10 1.9321564015309239e-10 1.0579133822975959e-11
6.210648424152782 1.2563239609580663e-18 2.0711331553470478e-10 1.9647260451427788e-10 1.06407110204269e-11
6.233982942956859 1.3195087319796742e-18 2.1834704122047374e-10 2.0749407817387945e-10 1.085296304659432e-11
6.239830258556775 1.326853482984547e-18 2.1976836521913127e-10 2.088877896222573e-10 1.0880575596873981e-11
6.245683058788269 1.3264022413638788e-18 2.1989969248561216e-10 2.0899147930055825e-10 1.0908213185053944e-11
6.257405133728602 1.3221450687100395e-18 2.1960529972907775e-10 2.0864978551770515e-10 1.0955514211372651e-11
6.269149208991335 1.3065293483885432e-18 2.1741885742372515e-10 2.0645116678211476e-10 1.0967690641610398e-11
6.280915325867298 1.27116170878339e-18 2.1193035901432578e-10 2.0099385480024524e-10 1.0936504214080515e-11
6.304513850009849 1.1855085995194419e-18 1.9839272598738039e-10 1.8755771559627061e-10 1.0835010391109802e-11
6.32820103803542 1.0818194220795883e-18 1.8172073085553904e-10 1.7102882497575923e-10 1.0691905879779839e-11
6.3519772230701035 9.874414811197066e-19 1.6649060542943182e-10 1.55928440557808e-10 1.0562164871623845e-11
6.375842739491607 9.077104623703132e-19 1.5362233816237935e-10 1.431761467121679e-10 1.0446191450211434e-11
6.399797922933955 8.44709359757777e-19 1.4349705911332967e-10 1.331176627276633e-10 1.0379396385666359e-11
6.42384311029221 7.920043049580807e-19 1.35049164241014e-10 1.2472669933806187e-10 1.0322464902952142e-11
6.447978639727206 7.537854645857097e-19 1.2901517082401494e-10 1.187114407271078e-10 1.0303730096907153e-11
6.472204850670314 7.217386887964193e-19 1.2399428651282766e-10 1.1370174797616588e-10 1.0292538536661797e-11
6.496522083828205 7.008064189947404e-19 1.2085049211071508e-10 1.1053833268258164e-10 1.031215942813339e-11
6.520930681187647 6.830244649162934e-19 1.1822662074487948e-10 1.0789029732782994e-10 1.0336323417049563e-11
6.57002334288761 6.639342932539143e-19 1.1578743862522897e-10 1.053605874450662e-10 1.0426851180162772e-11
