Dust emission spectrum from A.P. Jones, M. Kohler, N. Ysard, M. Bocchio, and L. Verstraete (2017), A&A, 602A, 46J 
inside the DustPedia framework.

lambda    nu*dP/dnu     j_nu    j_nu(carb.) j_nu(sil)
 (um)   (erg s-1 H-1) (Jy cm2 sr-1 H-1)
0.9927057738263894 1.4591979831345558e-23 3.8450695663503873e-16 3.8450695663502123e-16 1.7430160045204576e-29
1.0001793341362166 1.483305432921239e-23 3.938019817378846e-16 3.938019817378637e-16 2.1000934359835993e-29
1.0077091589558085 1.5073785045624e-23 4.032059727561007e-16 4.0320597275607548e-16 2.527102156851986e-29
1.0114953028030835 1.5193991837986023e-23 4.0794836055874767e-16 4.0794836055871996e-16 2.7708101997594066e-29
1.0152956718711033 1.5314077201421508e-23 4.1271742001406495e-16 4.1271742001403458e-16 3.0370482849038115e-29
1.0229392996569957 1.555371890411652e-23 4.2233156595860914e-16 4.2233156595857276e-16 3.64526500455501e-29
1.0267826658714554 1.5672984614424715e-23 4.2716894153499946e-16 4.2716894153495957e-16 3.9918456584686826e-29
1.0306404723013447 1.579207616418824e-23 4.320319404859732e-16 4.320319404859296e-16 4.369973568003846e-29
1.03451277320114 1.5910982060679285e-23 4.3692035357322613e-16 4.369203535731784e-16 4.7823814282470063e-29
1.0383996230291617 1.602969087490858e-23 4.4183396894256464e-16 4.418339689425122e-16 5.232025671835762e-29
1.0403485208654093 1.608896782258471e-23 4.44300160575629e-16 4.443001605755742e-16 5.47180070229364e-29
1.0423010764483396 1.614819124381686e-23 4.467725721740186e-16 4.467725721739614e-16 5.722103642117593e-29
1.0462171883269815 1.626647187241805e-23 4.517359463320199e-16 4.517359463319574e-16 6.256071989144006e-29
1.0471985131304309 1.6296006378165767e-23 4.529806346711976e-16 4.529806346711337e-16 6.396853293731726e-29
1.048180758391296 1.6325526273550593e-23 4.542268540406098e-16 4.542268540405444e-16 6.54067098086666e-29
1.0501480137395462 1.6384521535893887e-23 4.567238720156192e-16 4.567238720155507e-16 6.83766636812261e-29
1.0521189612883777 1.6443456267645088e-23 4.592269724549575e-16 4.592269724548862e-16 7.14757216138765e-29
1.0531058218030118 1.6472855252045174e-23 4.604795299916174e-16 4.604795299915443e-16 7.307542839292818e-29
1.0540936079674168 1.6502090334466995e-23 4.617294472489459e-16 4.617294472488714e-16 7.470977834994678e-29
1.058054026499678 1.6618864562569767e-23 4.667438732153972e-16 4.667438732153156e-16 8.160456014183004e-29
1.0590464539527713 1.6648015740152632e-23 4.680011510872938e-16 4.680011510872105e-16 8.342127895135054e-29
1.06003981227728 1.6677149625428326e-23 4.69259890339382e-16 4.692598903392968e-16 8.52767281522793e-29
1.0620293250338977 1.673536484051331e-23 4.717817385717214e-16 4.717817385716323e-16 8.910697761126152e-29
1.0660195594769086 1.685158031684165e-23 4.768428125885925e-16 4.768428125884952e-16 9.726786060896671e-29
1.070024785945596 1.6967500222103594e-23 4.819268623848245e-16 4.819268623847184e-16 1.0614204661608123e-28
1.0740450607676866 1.7083113870623726e-23 4.870336529777891e-16 4.870336529776733e-16 1.1578867598239552e-28
1.07808044048254 1.7198410662224748e-23 4.921629473337396e-16 4.921629473336133e-16 1.2627150725618799e-28
1.0861967418109137 1.7427807956519658e-23 5.024822145404269e-16 5.024822145402768e-16 1.500259640414054e-28
1.0902777775684922 1.754142435898312e-23 5.076582500027217e-16 5.076582500025582e-16 1.6345139579656267e-28
1.0943741465085532 1.7654674290004497e-23 5.128554410838717e-16 5.128554410836937e-16 1.7802133864883286e-28
1.1026131145906286 1.788003447525907e-23 5.2331229522239675e-16 5.233122952221857e-16 2.1097126390283435e-28
1.1109141095355224 1.8103808960234272e-23 5.338507704743208e-16 5.33850770474071e-16 2.4970182106259064e-28
1.1192775983109025 1.8325712011937888e-23 5.444626618861279e-16 5.444626618858327e-16 2.9516783147472896e-28
1.1277040513999907 1.8544712911198356e-23 5.551172054576458e-16 5.551172054572973e-16 3.484714482212932e-28
1.1361939428280308 1.8761869494502638e-23 5.658456915744608e-16 5.658456915740498e-16 4.10882998456433e-28
1.1447477501889525 1.8977109330531386e-23 5.766460100222347e-16 5.766460100217506e-16 4.838648848028569e-28
1.1533659546722406 1.9190478972604513e-23 5.875196210644623e-16 5.875196210638931e-16 5.690991760033478e-28
1.1707974979042381 1.9612296723783097e-23 6.095083700953851e-16 6.095083700946007e-16 7.843399941022504e-28
1.1884924949847024 2.002572487153667e-23 6.317629048150649e-16 6.317629048139893e-16 1.0756731046362541e-27
1.2064549276569216 2.0433996076029844e-23 6.543857602303107e-16 6.543857602288426e-16 1.4680647511570629e-27
1.2246888378427687 2.083265121449566e-23 6.772355314500981e-16 6.772355314481042e-16 1.993944149618727e-27
1.2431983285522175 2.1220757388314616e-23 7.002784000401914e-16 7.002784000374961e-16 2.6952917383029406e-27
1.2619875648066055 2.159816913674926e-23 7.23504849469282e-16 7.23504849465656e-16 3.62617426152779e-27
1.3004222497298317 2.231463478620951e-23 7.702711073056993e-16 7.702711072992268e-16 6.472494732684003e-27
1.3400274889804893 2.2979241773728247e-23 8.1737026600726095e-16 8.173702659959166e-16 1.1344380351308851e-26
1.3808389325824078 2.3589522760679398e-23 8.646326102529147e-16 8.646326102333812e-16 1.953328099516756e-26
1.4228933163050095 2.4148444102849364e-23 9.120757869832602e-16 9.12075786950203e-16 3.305729438356961e-26
1.466228494730424 2.4669451493959826e-23 9.60131198295102e-16 9.60131198240088e-16 5.501398495710054e-26
1.5108834753276823 2.5142414356703928e-23 1.008340901275529e-15 1.0083409011854585e-15 9.007075404702258e-26
1.5568984535646726 2.5559134715928755e-23 1.0562722428153814e-15 1.056272242670154e-15 1.4522753837244656e-25
1.6043148490894465 2.5920369902109472e-23 1.103825013329203e-15 1.103825013098178e-15 2.310249007882243e-25
1.6531753430134553 2.6227214198049504e-23 1.1509077522785458e-15 1.1509077519163662e-15 3.621795774296808e-25
1.7035239163302658 2.6483308885367255e-23 1.1975396844290065e-15 1.1975396838693109e-15 5.596955327093095e-25
1.755405889504358 2.6709711165980484e-23 1.2445609660896146e-15 1.2445609652365883e-15 8.530261736757339e-25
1.8088679632656115 2.690121755933548e-23 1.2916600782341397e-15 1.291660076951477e-15 1.2826630836637513e-24
1.8639582606462262 2.7054302486100794e-23 1.3385726819168374e-15 1.3385726800132261e-15 1.903611054481472e-24
1.9207263702978936 2.7171516972031225e-23 1.3853158958622827e-15 1.3853158930727775e-15 2.7895048617002252e-24
1.979223391128241 2.7258803384498354e-23 1.432092383992338e-15 1.4320923799546659e-15 4.037672127844894e-24
2.039501978296691 2.732327421694424e-23 1.4791979787062088e-15 1.4791979729312344e-15 5.774974232370957e-24
2.1016163906111602 2.738485683831553e-23 1.5276833832959995e-15 1.52768337513076e-15 8.165239372087283e-24
2.1656225393682647 2.745510510412529e-23 1.5782482138977636e-15 1.5782482024809911e-15 1.1416772218647671e-23
2.231578038680979 2.753484396256122e-23 1.6310381960169633e-15 1.6310381802257652e-15 1.5791198885368943e-23
2.299542257339062 2.763099042128346e-23 1.6865812974277648e-15 1.6865812758142988e-15 2.1613466353876305e-23
2.369576372248914 2.775884249637478e-23 1.7459889727473053e-15 1.7459889434640052e-15 2.9283299981821135e-23
2.4417434235010123 2.793646464860663e-23 1.8106766669448236e-15 1.810676627658473e-15 3.928635057871737e-23
2.5161083711144245 2.819479544240635e-23 1.8830754600716868e-15 1.8830754078633772e-15 5.2208309121791007e-23
2.5927381535095444 2.858446564106185e-23 1.9672437289223964e-15 1.9672436601741735e-15 6.87482230524969e-23
2.6717017477616296 2.9165923418981603e-23 2.0683933782111836e-15 2.068393288482681e-15 8.972850226700599e-23
2.753070231689431 3.0030180402951994e-23 2.1945458797814537e-15 2.194545763672513e-15 1.1610894023690655e-22
2.836916847834745 3.138343774330795e-23 2.363287479015087e-15 2.3632873300098918e-15 1.4900519492577056e-22
2.9233170693905177 3.3679845376656077e-23 2.613457514987126e-15 2.6134573253137364e-15 1.8967338953648467e-22
2.967498994190263 3.5630110281412605e-23 2.8065784102003098e-15 2.8065781971540406e-15 2.1304626809360114e-22
3.0123486681368425 3.7907800806172125e-23 3.0311209156801e-15 3.031120676688313e-15 2.38991787493507e-22
3.0578761833420214 4.3004418921197093e-23 3.4906187184466107e-15 3.490618450621494e-15 2.6782511733501036e-22
3.1040917844459814 4.957200190347086e-23 4.084514527995881e-15 4.084514228388466e-15 2.9960741425380833e-22
3.127460860933648 5.651976479968662e-23 4.692039529708103e-15 4.692039212919658e-15 3.1678844316661894e-22
3.1510058709225794 6.577673323892959e-23 5.501624509624385e-15 5.501624174805285e-15 3.348190996702713e-22
3.162844764501044 7.439362033502352e-23 6.245727093919788e-15 6.2457267497199406e-15 3.4419984577324215e-22
3.1747281389236908 8.441436000570476e-23 7.113646936896691e-15 7.113646583091912e-15 3.5380477620518566e-22
3.1986289994194426 1.1236513717830853e-22 9.540362786302662e-15 9.540362412547745e-15 3.737549151172132e-22
3.2227097969389145 1.782521937679915e-22 1.52484435325445e-14 1.5248443137491928e-14 3.950525672658012e-22
3.2348180950136065 2.4073383851265716e-22 2.0670759667494867e-14 2.0670759261020433e-14 4.064744399122175e-22
3.240889293275058 2.8744700820861706e-22 2.4728138352524388e-14 2.472813794001184e-14 4.12512546082595e-22
3.2469718861334385 3.414869466928929e-22 2.943215546433294e-14 2.943215504556311e-14 4.1876983889332537e-22
3.2714166318528037 6.297455342466474e-22 5.4685273283127244e-14 5.4685272838353746e-14 4.447734991946028e-22
3.2744851364798273 6.477654706598505e-22 5.630283334807306e-14 5.6302832900213404e-14 4.478596598562231e-22
3.2775565192852394 6.663029906594194e-22 5.7968409570966e-14 5.79684091200015e-14 4.509644981052843e-22
3.283707930232385 6.484755968729531e-22 5.6523310812098475e-14 5.65233103555579e-14 4.565405677833159e-22
3.2898708863219004 5.919395844456983e-22 5.1692277890640275e-14 5.169227742900237e-14 4.61637894566457e-22
3.29141343181113 5.786069832226617e-22 5.055167392342165e-14 5.0551673460502405e-14 4.629192709663174e-22
3.292184975758714 5.720558154360654e-22 4.999102789388694e-14 4.999102743032593e-14 4.63561018782646e-22
3.295272960557952 5.307041959038174e-22 4.6420877862114585e-14 4.6420877396054597e-14 4.660599831587516e-22
3.3076538914384823 3.8744953711940823e-22 3.401767586507467e-14 3.4017675388954204e-14 4.761204673685675e-22
3.310756385682612 3.582935657318628e-22 3.148731780555618e-14 3.1487317326894156e-14 4.786620262777989e-22
3.313861789986515 3.3139264608494297e-22 2.9150545844112373e-14 2.915054536289815e-14 4.812142179706181e-22
3.3200813396944477 2.936670658824374e-22 2.5880544004007788e-14 2.588054351730742e-14 4.86700368942139e-22
3.345076488085796 2.2636785062116716e-22 2.0099730436165813e-14 2.0099729924959378e-14 5.112064342152527e-22
3.3482140837626964 2.2889137876044736e-22 2.0342863598507876e-14 2.034286308397116e-14 5.145367128057036e-22
3.3513546224236106 2.3144280720048166e-22 2.0588917164924152e-14 2.0588916647038734e-14 5.17885420874641e-22
3.3576445397418455 2.50089668673947e-22 2.2289478188065602e-14 2.2289477663170916e-14 5.248946827365636e-22
3.3702598118196083 3.1886751611845393e-22 2.8526145533489704e-14 2.8526144993850917e-14 5.396387831290124e-22
3.382922481734668 3.3453203781702396e-22 3.00399492993431e-14 3.0039948745311555e-14 5.540315362427111e-22
3.389271646505754 3.426473480797634e-22 3.082642675938998e-14 3.082642619803954e-14 5.613504432902715e-22
3.395632727569191 3.513919828687158e-22 3.167247430317352e-14 3.167247373427352e-14 5.689000034458501e-22
3.421196662673239 3.9338043875806085e-22 3.5724012540248717e-14 3.572401193994772e-14 6.003009943626841e-22
3.4276182099114902 3.849184078945398e-22 3.502116227669444e-14 3.502116166929966e-14 6.073947582289409e-22
3.4340518103208963 3.478386847954213e-22 3.1706927277636487e-14 3.170692666349683e-14 6.141396561155975e-22
3.4469541582030403 2.9503027597118463e-22 2.6994266195620672e-14 2.699426556845287e-14 6.271677998018214e-22
3.472904465399547 2.802296457847303e-22 2.5833089438444705e-14 2.583308878121643e-14 6.572282784397219e-22
3.4990501388274233 2.5759306196782666e-22 2.3925099919812242e-14 2.392509923154436e-14 6.882678857199534e-22
3.5253949054701885 1.7703618096068902e-22 1.656682321917918e-14 1.656682250043403e-14 7.1874515128086615e-22
3.5519380250092896 1.0132200828538016e-22 9.552974133993295e-15 9.552973384291164e-15 7.497021306949565e-22
3.578680990867387 7.129986168514496e-23 6.773000487256914e-15 6.77299970340336e-15 7.838535526721712e-22
3.605625307711299 5.915537753520743e-23 5.6616661496714e-15 5.661665329535034e-15 8.201363681043235e-22
3.660119384959845 5.0293138514138e-23 4.886224565115776e-15 4.886223667583674e-15 8.975321031173238e-22
3.715437065384467 4.4015565987397755e-23 4.340958491519123e-15 4.340957510717336e-15 9.808017858136294e-22
3.8285932144167436 4.082117996855446e-23 4.148529785032865e-15 4.148528619112441e-15 1.1659204243041079e-21
3.94519561050918 4.019770260917382e-23 4.209584262784815e-15 4.209582885255492e-15 1.3775293216340936e-21
4.06534921144712 4.0629471355523786e-23 4.3843827649259015e-15 4.384381146457125e-15 1.6184687759298116e-21
4.189162171576248 4.167188691625578e-23 4.633826534521671e-15 4.633824641876044e-15 1.8926456262623982e-21
4.316745939156006 4.3159085752543827e-23 4.945362810016752e-15 4.945360606626234e-15 2.2033905189594828e-21
4.448215356677963 4.5035133352220066e-23 5.317490114522298e-15 5.317487562575331e-15 2.5519469679440628e-21
4.58368876423945 4.730631312594071e-23 5.75577298148511e-15 5.755770037438179e-15 2.9440469315835334e-21
4.723288106065518 5.002489740300109e-23 6.27191373955417e-15 6.271910351574016e-15 3.387980153807202e-21
4.867139040275056 5.329595059039825e-23 6.885530379105547e-15 6.885526496026255e-15 3.88307929166061e-21
4.940699165968905 5.527107028143786e-23 7.248626433386804e-15 7.248622279929803e-15 4.15345700064427e-21
5.015371051989984 5.73159372540358e-23 7.630410462064823e-15 7.630406022133417e-15 4.439931406500625e-21
5.091171501069577 5.981405033610108e-23 8.08333116696756e-15 8.083326418954011e-15 4.748013549293106e-21
5.129500256944802 6.109594330570345e-23 8.318726836848843e-15 8.318721927965549e-15 4.9088832951181814e-21
5.168117569889187 6.243246659217704e-23 8.564703077956378e-15 8.564698002608736e-15 5.075347637414337e-21
5.20702561229733 6.407499775846436e-23 8.856206748281075e-15 8.856201493955885e-15 5.254325189057088e-21
5.246226572918644 6.575935042751479e-23 9.157438074483631e-15 9.157432635602997e-15 5.438880630996426e-21
5.265937586045735 6.661762728429803e-23 9.311814177787667e-15 9.311808644483891e-15 5.533303776899654e-21
5.285722656980489 6.748686777523289e-23 9.468759303447806e-15 9.46875367426116e-15 5.6291866482645335e-21
5.305582063971359 6.836724908332096e-23 9.628321309385113e-15 9.628315582833279e-15 5.7265518374533585e-21
5.3255160863122235 6.931347335475548e-23 9.798256316487843e-15 9.798250490610256e-15 5.82587758459612e-21
5.365609099470188 7.167326010573107e-23 1.0208116598799505e-14 1.0208110566055221e-14 6.032744282884902e-21
5.406003951863644 7.412295861136181e-23 1.0636494937047583e-14 1.0636488690791698e-14 6.24625588234454e-21
5.446702915881641 7.666692541931353e-23 1.1084373922445986e-14 1.1084367455816605e-14 6.466629381789835e-21
5.487708281020852 7.941652144102668e-23 1.15683470851362e-14 1.1568340390393148e-14 6.694743054416457e-21
5.529022354014368 8.324403802709859e-23 1.221717846012823e-14 1.2217171524081013e-14 6.936047218216491e-21
5.570647458961463 8.729769639826677e-23 1.2908562789799035e-14 1.2908555604350327e-14 7.185448708618668e-21
5.612585937458331 9.159381009029158e-23 1.3645786179167296e-14 1.3645778735936036e-14 7.443231261461656e-21
5.654840148729818 9.631753200760267e-23 1.4457563608786455e-14 1.445755589812792e-14 7.710658537463186e-21
5.67608639626678 9.953784001981103e-23 1.4997077736022458e-14 1.499706988402067e-14 7.852001793986529e-21
5.686739436050992 1.01197867204487e-22 1.5275805575290024e-14 1.5275797651684937e-14 7.923605085482608e-21
5.6974124697621304 1.0289220553112704e-22 1.5560715819430833e-14 1.556070782359357e-14 7.99583726243207e-21
5.718818669136295 1.0638712530653015e-22 1.614971390988069e-14 1.614970576766872e-14 8.142211972384192e-21
5.740305295436557 1.102405304676565e-22 1.679754132340188e-14 1.6797533031150518e-14 8.292251365570129e-21
5.7835210386641895 1.2024295979935614e-22 1.8459562793356107e-14 1.8459554184301307e-14 8.609054799131791e-21
5.827062130521658 1.317687030720726e-22 2.0381275204633707e-14 2.0381266264226865e-14 8.940406833928923e-21
5.8489554468988025 1.3985837301697082e-22 2.1713819234114444e-14 2.171381011219998e-14 9.121914467965128e-21
5.870931020387893 1.4854049098456614e-22 2.314841532903171e-14 2.3148406021753014e-14 9.307278694365145e-21
5.892989160043636 1.5786277033248842e-22 2.4693621965151853e-14 2.469361246855755e-14 9.496594298982131e-21
5.915130176081913 1.68466577535105e-22 2.6451328731216224e-14 2.6451319036611397e-14 9.694604824516114e-21
5.95966208400165 1.9812400613996741e-22 3.134210561589684e-14 3.13420954700954e-14 1.0145801435253375e-20
6.004529249263818 2.4088206187211357e-22 3.839307150102368e-14 3.839306083299436e-14 1.0668029313554446e-20
6.027089341400364 2.7060920280231843e-22 4.329319366173623e-14 4.3293182686499557e-14 1.0975236671242405e-20
6.049734195844842 3.057421001094937e-22 4.909768001266821e-14 4.909766870623857e-14 1.130642964895196e-20
6.095279466722835 4.072382769811594e-22 6.588880743197045e-14 6.588879529735442e-14 1.2134616028118992e-20
6.141167624020661 5.6345528894535e-22 9.185014463683519e-14 9.185013139722726e-14 1.3239607957820905e-20
6.164241091010745 6.632173586572814e-22 1.0851878780181264e-13 1.085187738642864e-13 1.393752621002403e-20
6.187401249150058 7.768680251202248e-22 1.275924452397801e-13 1.2759243055898433e-13 1.4680795763862875e-20
6.1990139391386085 8.323608308923853e-22 1.3696313274292678e-13 1.369631176811215e-13 1.5061805271633875e-20
6.204828454712694 8.615930374756779e-22 1.419062072862349e-13 1.419061920290658e-13 1.5257169090333242e-20
6.210648424152782 8.829310618646708e-22 1.455570261287672e-13 1.4555701070450684e-13 1.542426032175104e-20
6.233982942956859 9.554243118858165e-22 1.5809980377878135e-13 1.5809978775624356e-13 1.6022537826913716e-20
6.239830258556775 9.646899598633377e-22 1.5978277793384983e-13 1.5978276182045952e-13 1.611339038279162e-20
6.245683058788269 9.654907426318496e-22 1.600654091055661e-13 1.6006539290077734e-13 1.6204788720117587e-20
6.257405133728602 9.634929559373327e-22 1.6003399655826769e-13 1.600339801888034e-13 1.6369464262904258e-20
6.269149208991335 9.492267458167697e-22 1.5796032042148082e-13 1.57960303971817e-13 1.6449663743155233e-20
6.280915325867298 9.134601862799842e-22 1.52293719898857e-13 1.5229370347414584e-13 1.6424711114089308e-20
6.304513850009849 8.252618221077797e-22 1.3810607751613364e-13 1.381060612381588e-13 1.6277974813486708e-20
6.32820103803542 7.1594058521931305e-22 1.2026151845665835e-13 1.2026150243783835e-13 1.601882001096096e-20
6.3519772230701035 6.156844560926666e-22 1.0380936977867536e-13 1.0380935399344629e-13 1.578522909700238e-20
6.375842739491607 5.313422236377443e-22 8.992518886085911e-14 8.992517327251856e-14 1.5588340547451202e-20
6.399797922933955 4.637394774665077e-22 7.87788728069476e-14 7.877885730592746e-14 1.5501020152904793e-20
6.42384311029221 4.075348650346701e-22 6.949109061335176e-14 6.949107517170019e-14 1.5441651543548114e-20
6.447978639727206 3.665728170094475e-22 6.274126635210107e-14 6.274125087573707e-14 1.5476363985214266e-20
6.472204850670314 3.324492907247765e-22 5.711459458250228e-14 5.711457904958358e-14 1.5532918693667752e-20
6.496522083828205 3.102667556061132e-22 5.3503919319659023e-14 5.350390365011507e-14 1.566954395157183e-20
