Dust emission spectrum from A.P. Jones, M. Kohler, N. Ysard, M. Bocchio, and L. Verstraete (2017), A&A, 602A, 46J 
inside the DustPedia framework.

lambda    nu*dP/dnu     j_nu    j_nu(carb.) j_nu(sil)
 (um)   (erg s-1 H-1) (Jy cm2 sr-1 H-1)
0.9927057738263894 4.175183122080372e-21 1.1001844672348807e-13 1.1001844412880969e-13 2.594678353858112e-21
1.0001793341362166 4.2453188052143695e-21 1.1270874639149913e-13 1.1270874326931143e-13 3.122187724555019e-21
1.0077091589558085 4.315743198358369e-21 1.15441040799821e-13 1.154410370478963e-13 3.751924707694454e-21
1.0114953028030835 4.3510606157829624e-21 1.1682302214107771e-13 1.168230180302077e-13 4.110870017587287e-21
1.0152956718711033 4.386446612451166e-21 1.1821560679818408e-13 1.1821560229553607e-13 4.5026479974311225e-21
1.0229392996569957 4.457385282060811e-21 1.2103179425181516e-13 1.2103178885539222e-13 5.396422975494643e-21
1.0267826658714554 4.49285745872764e-21 1.224533305128086e-13 1.2245332460777068e-13 5.905037880537077e-21
1.0306404723013447 4.528392045173341e-21 1.2388554755036217e-13 1.238855410909334e-13 6.4594288008567536e-21
1.03451277320114 4.563988026342798e-21 1.253284840978906e-13 1.2532847703438482e-13 7.063505773611085e-21
1.0383996230291617 4.599644421192581e-21 1.267821797812201e-13 1.267821720597266e-13 7.721493540286195e-21
1.0403485208654093 4.617494976677009e-21 1.2751307493541684e-13 1.275130668633008e-13 8.072116043408452e-21
1.0423010764483396 4.635360283525131e-21 1.282466751573046e-13 1.282466667193494e-13 8.437955202714935e-21
1.0462171883269815 4.671134702816304e-21 1.2972201175345509e-13 1.2972200253563755e-13 9.217817520399533e-21
1.0471985131304309 4.6800873539249406e-21 1.3009254480521294e-13 1.3009253538190936e-13 9.42330360255295e-21
1.048180758391296 4.689043596739074e-21 1.3046375876144002e-13 1.3046374912827046e-13 9.63316959229716e-21
1.0501480137395462 4.7069668050357336e-21 1.312082321070734e-13 1.3120822204067544e-13 1.0066397952504824e-20
1.0521189612883777 4.72490422428798e-21 1.31955437271957e-13 1.3195542675372388e-13 1.051823307061051e-20
1.0531058218030118 4.73386639673186e-21 1.3232973519509086e-13 1.32329724443711e-13 1.0751379792535534e-20
1.0540936079674168 4.742793312900306e-21 1.3270363271539969e-13 1.3270362172588159e-13 1.0989518117440372e-20
1.058054026499678 4.778534323535959e-21 1.342060169070307e-13 1.342060049135261e-13 1.1993504617989667e-20
1.0590464539527713 4.7874778542015335e-21 1.345833150053655e-13 1.3458330274748447e-13 1.2257881022947375e-20
1.06003981227728 4.7964246732212604e-21 1.3496129534900106e-13 1.3496128282117618e-13 1.252782488088784e-20
1.0620293250338977 4.814328131883015e-21 1.3571930565959808e-13 1.3571929257473563e-13 1.3084862430717791e-20
1.0660195594769086 4.8501740295127086e-21 1.3724354525169244e-13 1.3724353098090356e-13 1.4270788861544084e-20
1.070024785945596 4.886071348867043e-21 1.3877878318695237e-13 1.387787676279142e-13 1.5559038219975462e-20
1.0740450607676866 4.9220194640214276e-21 1.4032506823667331e-13 1.403250512787114e-13 1.695796193105546e-20
1.07808044048254 4.958017791436719e-21 1.4188245048283785e-13 1.418824320062866e-13 1.8476551300585493e-20
1.0861967418109137 5.0301080602798644e-21 1.4502913067512527e-13 1.4502910876295474e-13 2.1912170504815212e-20
1.0902777775684922 5.066074224818102e-21 1.4661491123655492e-13 1.4661488738574107e-13 2.385081382540284e-20
1.0943741465085532 5.102086559242857e-21 1.4821190183440778e-13 1.4821187588196242e-13 2.5952445355446837e-20
1.1026131145906286 5.1742483832616716e-21 1.5143974141896652e-13 1.5143971072158498e-13 3.069738158017765e-20
1.1109141095355224 5.246591297330923e-21 1.54713122116802e-13 1.547130858543875e-13 3.626241449467611e-20
1.1192775983109025 5.319057423914707e-21 1.5803086733346108e-13 1.5803082455287317e-13 4.2780587974527947e-20
1.1277040513999907 5.3913867900487244e-21 1.6138570506669102e-13 1.613856546616655e-13 5.040502551787344e-20
1.1361939428280308 5.463886885027481e-21 1.6478724862940214e-13 1.647871893176829e-13 5.931171923974735e-20
1.1447477501889525 5.536558759055994e-21 1.6823608180023566e-13 1.6823601209756708e-13 6.970266856406762e-20
1.1533659546722406 5.609429813548203e-21 1.7173360201943176e-13 1.71733520209906e-13 8.18095257857355e-20
1.1707974979042381 5.7559900026638975e-21 1.7888389790445047e-13 1.7888378563390198e-13 1.1227054847264924e-19
1.1884924949847024 5.9033789076744334e-21 1.8623724388810104e-13 1.8623709058795369e-13 1.533001473961607e-19
1.2064549276569216 6.052588662831543e-21 1.938303119346549e-13 1.9383010364598586e-13 2.0828866902831393e-19
1.2246888378427687 6.2026685262214764e-21 2.01638642749489e-13 2.0163836113729562e-13 2.816121933433192e-19
1.2431983285522175 6.3535010183487515e-21 2.0966355942757209e-13 2.0966318052847142e-13 3.7889910061878607e-19
1.2619875648066055 6.505311671510635e-21 2.1791775552117284e-13 2.1791724816953566e-13 5.073516371807231e-19
1.3004222497298317 6.810961279179184e-21 2.3510520053735357e-13 2.3510430370476393e-13 8.968325896123182e-19
1.3400274889804893 7.120552996493577e-21 2.5327764745992626e-13 2.5327609125959195e-13 1.556200334282443e-18
1.3808389325824078 7.435218359900997e-21 2.7252489690200255e-13 2.7252224488631525e-13 2.6520156872138054e-18
1.4228933163050095 7.757542928745371e-21 2.9299887983081275e-13 2.9299443905562314e-13 4.4407751895139596e-18
1.466228494730424 8.0929918089948e-21 3.149779769228003e-13 3.149706666898106e-13 7.310232989747482e-18
1.5108834753276823 8.440807193601882e-21 3.3852004077007334e-13 3.3850820531342466e-13 1.1835456648720432e-17
1.5568984535646726 8.80053865776536e-21 3.636963774140622e-13 3.6367751142447113e-13 1.8865989591008118e-17
1.6043148490894465 9.174022476608799e-21 3.9067789235912847e-13 3.9064822840519506e-13 2.9663953933320484e-17
1.6531753430134553 9.563126439404423e-21 4.196509881689611e-13 4.1960503495357505e-13 4.5953215385942334e-17
1.7035239163302658 9.969973337032958e-21 4.508288135548243e-13 4.5075866136973007e-13 7.015218509431089e-17
1.755405889504358 1.0401413892660221e-20 4.846624376618165e-13 4.845568480243752e-13 1.0558963744122723e-16
1.8088679632656115 1.0856682266241058e-20 5.212828391296995e-13 5.211260886802282e-13 1.567504494712883e-16
1.8639582606462262 1.1334631368280282e-20 5.608064712432491e-13 5.605768695667282e-13 2.2960167652099923e-16
1.9207263702978936 1.1835511753132134e-20 6.034231575717996e-13 6.030912004702948e-13 3.3195710150464494e-16
1.979223391128241 1.2360067843700959e-20 6.493593564954097e-13 6.488854469752984e-13 4.739095201112581e-16
2.039501978296691 1.2908526836850795e-20 6.988279169450137e-13 6.981596220171261e-13 6.682949278876418e-16
2.1016163906111602 1.3484782361814921e-20 7.52258011175157e-13 7.513267377048822e-13 9.312734702747707e-16
2.1656225393682647 1.4089487886734195e-20 8.099298475689034e-13 8.086470161097536e-13 1.2828314591501683e-15
2.231578038680979 1.471874537009114e-20 8.718711436574068e-13 8.701238015600193e-13 1.7473420973872981e-15
2.299542257339062 1.5370553014985515e-20 9.38210569036575e-13 9.35856428322758e-13 2.3541407138170024e-15
2.369576372248914 1.6044154827362405e-20 1.0091529360161037e-12 1.0060148090594144e-12 3.13812695668968e-15
2.4417434235010123 1.6739096247409663e-20 1.0849293703467966e-12 1.0807891846199245e-12 4.140185726872368e-15
2.5161083711144245 1.7457739501855282e-20 1.165968411135316e-12 1.1605606534041496e-12 5.407757731166632e-15
2.5927381535095444 1.820618615754048e-20 1.2529884586880375e-12 1.2459933359257226e-12 6.9951227623148266e-15
2.6717017477616296 1.8989116601606788e-20 1.3466730496618365e-12 1.337709866160984e-12 8.963183500852508e-15
2.753070231689431 1.981509293454811e-20 1.4480475965680352e-12 1.436668176663109e-12 1.1379419904926438e-14
2.836916847834745 2.0713305072900107e-20 1.5597875200349166e-12 1.5454694305804483e-12 1.4318089454468443e-14
2.9233170693905177 2.1751904465862982e-20 1.687884179866024e-12 1.6700281993926365e-12 1.7855980473388096e-14
2.967498994190263 2.2392372637236888e-20 1.7638438135740058e-12 1.7440085307808142e-12 1.9835282793191835e-14
3.0123486681368425 2.307653591844891e-20 1.8452078252047982e-12 1.823202373936985e-12 2.200545126781314e-14
3.0578761833420214 2.4226679651296495e-20 1.96645143913204e-12 1.9420625487099187e-12 2.4388890422120977e-14
3.1040917844459814 2.5577081352679144e-20 2.107438803302311e-12 2.080462182869507e-12 2.6976620432803773e-14
3.127460860933648 2.6849661305853775e-20 2.2289489818796708e-12 2.200589187375347e-12 2.8359794504323927e-14
3.1510058709225794 2.8471521367786975e-20 2.381383386954294e-12 2.351583546864139e-12 2.979984009015506e-14
3.162844764501044 2.9948694980942975e-20 2.5143469941058086e-12 2.4838025859723903e-12 3.0544408133416407e-14
3.1747281389236908 3.1620523114026816e-20 2.6646797698634033e-12 2.6333761168987555e-12 3.130365296464826e-14
3.1986289994194426 3.615291086577852e-20 3.0695631590166737e-12 3.036692327344979e-12 3.287083167169564e-14
3.2227097969389145 4.6678202882079643e-20 3.993050103913274e-12 3.958520378855277e-12 3.4529725057996553e-14
3.2348180950136065 5.65614274669645e-20 4.856681889191886e-12 4.821267320438142e-12 3.541456875374381e-14
3.240889293275058 6.394756659946805e-20 5.50120275745319e-12 5.465321454278726e-12 3.5881303174464963e-14
3.2469718861334385 7.2509066006544e-20 6.249428049726966e-12 6.2130638157142594e-12 3.636423401270635e-14
3.2714166318528037 1.1741187706812732e-19 1.019570641630106e-11 1.015734789272451e-11 3.835852357655321e-14
3.2744851364798273 1.2021506689669048e-19 1.044891891276189e-11 1.041032576710858e-11 3.859314565331192e-14
3.2775565192852394 1.2309304390538654e-19 1.0709103942911249e-11 1.0670275039114356e-11 3.882890379689423e-14
3.283707930232385 1.203138381116692e-19 1.0486958182197736e-11 1.044770847677866e-11 3.9249705419080544e-14
3.2898708863219004 1.115017269419312e-19 9.737105619935678e-12 9.697473706124235e-12 3.9631913811445356e-14
3.29141343181113 1.0941891213350508e-19 9.559699982224196e-12 9.51997211282515e-12 3.9727869399044743e-14
3.292184975758714 1.0839478670339428e-19 9.472444225587853e-12 9.432668317816267e-12 3.9775907771582637e-14
3.295272960557952 1.0201419380345657e-19 8.923216487270059e-12 8.883253859990838e-12 3.9962627279220745e-14
3.3076538914384823 7.973579211220028e-20 7.000721567727317e-12 6.960009356280545e-12 4.071221144677255e-14
3.310756385682612 7.515223351810182e-20 6.6044788042684255e-12 6.563577730270742e-12 4.090107399768436e-14
3.313861789986515 7.090388337156071e-20 6.2369727486906585e-12 6.195882224902453e-12 4.109052378820663e-14
3.3200813396944477 6.49690895359098e-20 5.725651855382237e-12 5.684153496685674e-12 4.149835869656275e-14
3.345076488085796 5.459376491997044e-20 4.8475079627062695e-12 4.804191196797552e-12 4.3316765908717977e-14
3.3482140837626964 5.50107375218732e-20 4.889113499691859e-12 4.845550362300776e-12 4.356313739108349e-14
3.3513546224236106 5.543147658965885e-20 4.9311278826881755e-12 4.887317304088724e-12 4.381057859945054e-14
3.3576445397418455 5.840149132906353e-20 5.205088135115242e-12 5.160760082168374e-12 4.432805294686855e-14
3.3702598118196083 6.916671010825529e-20 6.187709750553032e-12 6.142296340822138e-12 4.541340973089411e-14
3.382922481734668 7.172725955005435e-20 6.440887558407736e-12 6.394420407892612e-12 4.6467150515124756e-14
3.389271646505754 7.304703491797455e-20 6.571710198572331e-12 6.524709179977721e-12 4.70010185946104e-14
3.395632727569191 7.450050091927799e-20 6.715051327226687e-12 6.6675001249813885e-12 4.755120224529904e-14
3.421196662673239 8.155885246934683e-20 7.406594688799933e-12 7.356767288238478e-12 4.9827400561453664e-14
3.4276182099114902 8.027334345705186e-20 7.303536879619622e-12 7.253202828585476e-12 5.033405103414837e-14
3.4340518103208963 7.446187931725486e-20 6.7875066680893286e-12 6.736694056499281e-12 5.081261159004928e-14
3.4469541582030403 6.611737479891168e-20 6.049514781499112e-12 5.997784936473854e-12 5.1729845025256316e-14
3.472904465399547 6.377687895911083e-20 5.8792987931091605e-12 5.82545406865889e-12 5.384472445026996e-14
3.4990501388274233 6.025539958532878e-20 5.5964879052808565e-12 5.5404819197166655e-12 5.600598556418998e-14
3.5253949054701885 4.785057497793376e-20 4.477796641871381e-12 4.419695700596905e-12 5.810094127447532e-14
3.5519380250092896 3.604033417795767e-20 3.3980019347107863e-12 3.337799162582387e-12 6.020277212839936e-14
3.578680990867387 3.142855648132092e-20 2.9854984754636304e-12 2.9229925349486176e-12 6.250594051501267e-14
3.605625307711299 2.964966623768928e-20 2.8377219228644346e-12 2.7727926192790075e-12 6.492930358542781e-14
3.660119384959845 2.8515284384436273e-20 2.7703994452707884e-12 2.7003894326124455e-12 7.001001265834321e-14
3.715437065384467 2.7742789960269385e-20 2.736084313693563e-12 2.660733701353763e-12 7.535061233980022e-14
3.8285932144167436 2.7656775994833703e-20 2.8106722799520414e-12 2.72389772291428e-12 8.677455703776162e-14
3.94519561050918 2.792060335361596e-20 2.923901737061343e-12 2.824751521159609e-12 9.915021590173335e-14
4.06534921144712 2.8294551059336686e-20 3.053304359299913e-12 2.940861066727231e-12 1.124432925726817e-13
4.189162171576248 2.870814966985119e-20 3.1922861080063753e-12 3.065627776781853e-12 1.266583312245221e-13
4.316745939156006 2.913188702866189e-20 3.3380630795373714e-12 3.196344347428032e-12 1.4171873210933943e-13
4.448215356677963 2.955275608638208e-20 3.489419851767323e-12 3.3320316163251485e-12 1.5738823544217415e-13
4.58368876423945 2.9968869180095136e-20 3.646321095732681e-12 3.4726571459664765e-12 1.7366394976620447e-13
4.723288106065518 3.0385695461152355e-20 3.809632218001854e-12 3.6190052599295504e-12 1.906269580723047e-13
4.867139040275056 3.081085200182607e-20 3.9805849246437675e-12 3.772801981458862e-12 2.0778294318490524e-13
4.940699165968905 3.10460533695152e-20 4.071591918895459e-12 3.855110600084775e-12 2.1648131881068366e-13
5.015371051989984 3.1269114521999425e-20 4.16282433855458e-12 3.937595539872137e-12 2.2522879868244475e-13
5.091171501069577 3.1541155680031026e-20 4.262503631135805e-12 4.028281722928424e-12 2.3422190820738057e-13
5.129500256944802 3.167212630375348e-20 4.312426534520903e-12 4.073701388249219e-12 2.3872514627168494e-13
5.168117569889187 3.1805220278196516e-20 4.363150823291084e-12 4.1198705180386004e-12 2.4328030525248357e-13
5.20702561229733 3.198222620681137e-20 4.420463791907013e-12 4.172186364771773e-12 2.4827742713524094e-13
5.246226572918644 3.215735143268988e-20 4.478130523945233e-12 4.224839328082602e-12 2.5329119586262924e-13
5.265937586045735 3.2244235079261505e-20 4.507100261641351e-12 4.251296725669566e-12 2.558035359717854e-13
5.285722656980489 3.2330680973358476e-20 4.536163054312602e-12 4.277843964958562e-12 2.5831908935403803e-13
5.305582063971359 3.2416700836322895e-20 4.565320612241442e-12 4.30448307665516e-12 2.6083753558628263e-13
5.3255160863122235 3.251094364675056e-20 4.595795644396153e-12 4.332415075748616e-12 2.6338056864753796e-13
5.365609099470188 3.276508524164356e-20 4.666591278573049e-12 4.397947510529396e-12 2.6864376804365294e-13
5.406003951863644 3.302124128370846e-20 4.738481467944993e-12 4.4645589264772936e-12 2.739225414677002e-13
5.446702915881641 3.327974953727846e-20 4.811529690267397e-12 4.532315372848758e-12 2.792143174186396e-13
5.487708281020852 3.355734674062107e-20 4.888189854047452e-12 4.603648537608502e-12 2.845413164389505e-13
5.529022354014368 3.3983680341696226e-20 4.987560638652567e-12 4.697466760448938e-12 2.900938782036286e-13
5.570647458961463 3.4424161028185316e-20 5.0902424972499716e-12 4.794581085154672e-12 2.956614120952996e-13
5.612585937458331 3.4880178582097024e-20 5.196502453094444e-12 4.8952611529369736e-12 3.0124130015747025e-13
5.654840148729818 3.537778933842223e-20 5.310317125423376e-12 5.003455895491829e-12 3.068612299315471e-13
5.67608639626678 3.57423734094022e-20 5.385199763065591e-12 5.075393841949836e-12 3.0980592111575557e-13
5.686739436050992 3.592870510878622e-20 5.423433605618645e-12 5.112153738732347e-12 3.1127986688629916e-13
5.6974124697621304 3.61178250506911e-20 5.462213670399959e-12 5.1494588463731675e-12 3.1275482402678885e-13
5.718818669136295 3.6504725965021365e-20 5.541468283827215e-12 5.225760678391681e-12 3.157076054355332e-13
5.740305295436557 3.693426521278994e-20 5.627738215060063e-12 5.30905028433847e-12 3.186879307215921e-13
5.7835210386641895 3.8086786100303767e-20 5.847040199183824e-12 5.522195328004984e-12 3.2484487117884097e-13
5.827062130521658 3.939725553692002e-20 6.0937558667937505e-12 5.762676732615197e-12 3.3107913417855414e-13
5.8489554468988025 4.035482375729774e-20 6.265319189607493e-12 5.9308594874078305e-12 3.3445970219966303e-13
5.870931020387893 4.1369404175145416e-20 6.4469704079566166e-12 6.1091211748289356e-12 3.378492331276823e-13
5.892989160043636 4.24455282916334e-20 6.639525123860349e-12 6.2982777319965485e-12 3.412473918637986e-13
5.915130176081913 4.367052015583524e-20 6.85680982783955e-12 6.512035412960828e-12 3.4477441487872545e-13
5.95966208400165 4.716529262653346e-20 7.461284534399913e-12 7.108391738057961e-12 3.5289279634195235e-13
6.004529249263818 5.2214521625947556e-20 8.322229752587606e-12 7.960155427139717e-12 3.6207432544788964e-13
6.027089341400364 5.574478402877148e-20 8.918284025810623e-12 8.550863910880543e-12 3.6742011493008047e-13
6.049734195844842 5.988522049583995e-20 9.616684756007967e-12 9.243593233999173e-12 3.730915220087932e-13
6.095279466722835 7.187133404049727e-20 1.1628367852789617e-11 1.1241197692047615e-11 3.871701607420008e-13
6.141167624020661 9.019208431267427e-20 1.4702419431935187e-11 1.4296805930649172e-11 4.0561350128600966e-13
6.164241091010745 1.0186861770298758e-19 1.6668229146708745e-11 1.6250957848356803e-11 4.1727129835193794e-13
6.187401249150058 1.1500167820453536e-19 1.8887822454173233e-11 1.845859642514961e-11 4.2922602902361936e-13
6.1990139391386085 1.213740266262973e-19 1.9971827485609237e-11 1.9536521514482317e-11 4.3530597112692347e-13
6.204828454712694 1.247166983916779e-19 2.054110570098924e-11 2.010273052459189e-11 4.383751763973531e-13
6.210648424152782 1.2712592567719802e-19 2.0957549784646486e-11 2.051657790492058e-11 4.409718797259034e-13
6.233982942956859 1.3517535954773153e-19 2.2368279260175103e-11 2.191833136302365e-11 4.4994789715144964e-13
6.239830258556775 1.361253421780502e-19 2.2546606915537914e-11 2.209547180567838e-11 4.511351098595393e-13
6.245683058788269 1.3608010271507436e-19 2.2560254956811526e-11 2.2107931341485366e-11 4.523236153261666e-13
6.257405133728602 1.3556561910833152e-19 2.2517142121393196e-11 2.206277230666623e-11 4.5436981472697125e-13
6.269149208991335 1.336132222384947e-19 2.223450560190303e-11 2.177954889468107e-11 4.54956707221953e-13
6.280915325867298 1.2915202093130823e-19 2.1532456472115165e-11 2.1078715181743418e-11 4.5374129037174504e-13
6.304513850009849 1.1833309203222964e-19 1.9802829530132484e-11 1.9353146411394436e-11 4.496831187380512e-13
6.32820103803542 1.0518111137224621e-19 1.7668002663531645e-11 1.7224108804004956e-11 4.438938595266856e-13
6.3519772230701035 9.318890859998876e-20 1.5712402313225526e-11 1.527374341707663e-11 4.386588961489011e-13
6.375842739491607 8.307801182265302e-20 1.4060252641299902e-11 1.3626258352639524e-11 4.339942886603781e-13
6.399797922933955 7.503478507262236e-20 1.274671680234445e-11 1.2315339766057473e-11 4.3137703628697177e-13
6.42384311029221 6.831838154091586e-20 1.164935628713248e-11 1.1220186807293864e-11 4.291694798386158e-13
6.447978639727206 6.341980079787511e-20 1.0854701792452126e-11 1.042614801707732e-11 4.2855377537480307e-13
6.472204850670314 5.931534974241971e-20 1.019034255020341e-11 9.762089937534808e-12 4.2825261266860087e-13
6.496522083828205 5.661067104210278e-20 9.76222144764241e-12 9.332984404588774e-12 4.292370430536383e-13
