Dust emission spectrum from A.P. Jones, M. Kohler, N. Ysard, M. Bocchio, and L. Verstraete (2017), A&A, 602A, 46J 
inside the DustPedia framework.

lambda    nu*dP/dnu     j_nu    j_nu(carb.) j_nu(sil)
 (um)   (erg s-1 H-1) (Jy cm2 sr-1 H-1)
0.9927057738263894 3.106163712882831e-25 8.18491781002302e-18 8.184917778482814e-18 3.1540207176899995e-26
1.0001793341362166 3.157894417804115e-25 8.383877334023735e-18 8.3838772960476e-18 3.797613382719511e-26
1.0077091589558085 3.2096391434105777e-25 8.585406180981844e-18 8.585406135316387e-18 4.566545932157587e-26
1.0114953028030835 3.23551159134752e-25 8.687128855493728e-18 8.68712880544276e-18 5.005096843987779e-26
1.0152956718711033 3.2613813622559213e-25 8.789487500998606e-18 8.789487446158992e-18 5.483960992476417e-26
1.0229392996569957 3.313079468052199e-25 8.996035279494969e-18 8.99603521372389e-18 6.57710841592365e-26
1.0267826658714554 3.3388464367063486e-25 9.100063155827367e-18 9.100063083831696e-18 7.199567149809673e-26
1.0306404723013447 3.36460135203406e-25 9.20471276840327e-18 9.204712689619848e-18 7.878342057629076e-26
1.03451277320114 3.3903422394019668e-25 9.309981774377725e-18 9.309981688194979e-18 8.618274419365797e-26
1.0383996230291617 3.4160671404881403e-25 9.415867808272755e-18 9.415867714026774e-18 9.424598204631817e-26
1.0403485208654093 3.428922988787972e-25 9.469041465676904e-18 9.469041367132833e-18 9.854407163262093e-26
1.0423010764483396 3.441774113800956e-25 9.5223684835513e-18 9.522368380521599e-18 1.0302969869915274e-25
1.0462171883269815 3.4674612351904683e-25 9.629481394206687e-18 9.629481281611688e-18 1.1259500247421007e-25
1.0471985131304309 3.473879689880539e-25 9.656354999970181e-18 9.65635488485411e-18 1.1511607254418878e-25
1.048180758391296 3.480296754983128e-25 9.68326668099451e-18 9.683266563303339e-18 1.1769117179067633e-25
1.0501480137395462 3.4931265983521784e-25 9.737204116367356e-18 9.737203993359471e-18 1.230078865920434e-25
1.0521189612883777 3.5059505298793045e-25 9.791293394815615e-18 9.791293266261396e-18 1.2855421914299386e-25
1.0531058218030118 3.5123507946180583e-25 9.818368572567924e-18 9.818368441151313e-18 1.3141661175365963e-25
1.0540936079674168 3.5187186608971902e-25 9.845395276543836e-18 9.845395142203228e-18 1.3434061065148507e-25
1.058054026499678 3.544172615308784e-25 9.953874090405214e-18 9.95387394373348e-18 1.4667173153587246e-25
1.0590464539527713 3.5505315827154934e-25 9.981086596854739e-18 9.981086446934961e-18 1.4991977637566812e-25
1.06003981227728 3.556888684509858e-25 1.0008336145749585e-17 1.0008335992512977e-17 1.532366074801716e-25
1.0620293250338977 3.5695971776270428e-25 1.0062946213068292e-17 1.0062946052986097e-17 1.600821948435074e-25
1.0660195594769086 3.594990531025202e-25 1.0172609119218211e-17 1.0172608944556678e-17 1.7466153569226492e-25
1.070024785945596 3.620350879324866e-25 1.028286027503504e-17 1.0282860084528762e-17 1.9050627678531634e-25
1.0740450607676866 3.6456764474468887e-25 1.0393697139889862e-17 1.0393696932169429e-17 2.077204367699321e-25
1.07808044048254 3.6709654818541277e-25 1.0505117168053695e-17 1.0505116941637623e-17 2.264160726517371e-25
1.0861967418109137 3.721384309902242e-25 1.0729573299527584e-17 1.0729573030783851e-17 2.6874373457559213e-25
1.0902777775684922 3.7464135242091667e-25 1.0842322120281959e-17 1.0842321827636406e-17 2.9264555235905168e-25
1.0943741465085532 3.771397711321503e-25 1.0955635912453876e-17 1.0955635593884242e-17 3.1856963448541306e-25
1.1026131145906286 3.821224513810053e-25 1.1183948071515402e-17 1.1183947694371763e-17 3.771436418036498e-25
1.1109141095355224 3.870851982841728e-25 1.1414489171705043e-17 1.1414488725794747e-17 4.459102983920487e-25
1.1192775983109025 3.9202241145738676e-25 1.164710901939667e-17 1.1647108492860038e-17 5.265366255698471e-25
1.1277040513999907 3.9691283258365156e-25 1.1881183790182343e-17 1.1881183169238589e-17 6.209437495778252e-25
1.1361939428280308 4.017791108759868e-25 1.2117394746851235e-17 1.2117394015508765e-17 7.313424737077579e-25
1.1447477501889525 4.066201499760777e-25 1.2355721990867728e-17 1.2355721130594056e-17 8.602736718836501e-25
1.1533659546722406 4.114372287637915e-25 1.2596217378429938e-17 1.2596216367774882e-17 1.010655056869393e-24
1.1707974979042381 4.210146515567743e-25 1.3084237795844802e-17 1.3084236406203286e-17 1.3896415171641883e-24
1.1884924949847024 4.304828982525766e-25 1.3580688240644289e-17 1.3580686339412586e-17 1.901231701431e-24
1.2064549276569216 4.399123254323975e-25 1.408791312485631e-17 1.4087910536462216e-17 2.5883940937255777e-24
1.2246888378427687 4.492146135377956e-25 1.4603234816446978e-17 1.4603231309702167e-17 3.506744813106536e-24
1.2431983285522175 4.583729792667127e-25 1.512616588884355e-17 1.5126161160823857e-17 4.728019697132298e-24
1.2619875648066055 4.673899920653013e-25 1.5656832933921133e-17 1.5656826589647162e-17 6.344273971245426e-24
1.3004222497298317 4.848850340233942e-25 1.6737577632414624e-17 1.6737566369284144e-17 1.1263130479377546e-23
1.3400274889804893 5.016776978645909e-25 1.7844645937025697e-17 1.7844626306185216e-17 1.9630840480512175e-23
1.3808389325824078 5.177565117266327e-25 1.8977457439531045e-17 1.8977423833036196e-17 3.360649485227896e-23
1.4228933163050095 5.332256241331687e-25 2.013969010589443e-17 2.01396335697949e-17 5.653609952906788e-23
1.466228494730424 5.484129673578657e-25 2.1344147016758867e-17 2.1344053505666352e-17 9.351109251757063e-23
1.5108834753276823 5.631558934483488e-25 2.2585465067197194e-17 2.2585312933329548e-17 1.52133867639255e-22
1.5568984535646726 5.77330175114214e-25 2.3859095610652337e-17 2.3858851903313942e-17 2.437073384025044e-22
1.6043148490894465 5.91000322043185e-25 2.5167886909815713e-17 2.516750179148183e-17 3.8511833387215036e-22
1.6531753430134553 6.042399191658447e-25 2.651537452482661e-17 2.6514774876399367e-17 5.996484272365517e-22
1.7035239163302658 6.171705927969032e-25 2.790762589886309e-17 2.79067057056735e-17 9.201931895929456e-22
1.755405889504358 6.302859042738494e-25 2.936869025131342e-17 2.936729787028367e-17 1.3923810297491575e-21
1.8088679632656115 6.43517708963927e-25 3.0898457754636036e-17 3.089637955416244e-17 2.0782004735968433e-21
1.8639582606462262 6.5681824971528e-25 3.2497565461352973e-17 3.249450463179732e-17 3.0608295556612294e-21
1.9207263702978936 6.702657419470306e-25 3.4172909364130195e-17 3.4168459195487856e-17 4.450168642338481e-21
1.979223391128241 6.840034432303284e-25 3.593540434837087e-17 3.5929014853873733e-17 6.389494497152515e-21
2.039501978296691 6.981834884809626e-25 3.779750540609219e-17 3.778844258035026e-17 9.062825741941677e-21
2.1016163906111602 7.132365039172077e-25 3.9788396989899064e-17 3.9775692809656694e-17 1.2704180242354549e-20
2.1656225393682647 7.293955606783493e-25 4.1929077907357674e-17 4.191147175361803e-17 1.7606153739655463e-20
2.231578038680979 7.466287509061341e-25 4.4226871691306474e-17 4.420274199844798e-17 2.4129692858497565e-20
2.299542257339062 7.6503724863639025e-25 4.6697476120575336e-17 4.66647615765646e-17 3.271454401074829e-20
2.369576372248914 7.848762000205949e-25 4.9367519210742857e-17 4.9323628600411807e-17 4.38906103310459e-20
2.4417434235010123 8.064464913527292e-25 5.226909930798054e-17 5.221081196974816e-17 5.828733823237084e-20
2.5161083711144245 8.30306483884519e-25 5.5454552501903226e-17 5.537790671541258e-17 7.664578649062936e-20
2.5927381535095444 8.573964288992682e-25 5.900784604941403e-17 5.890801870167379e-17 9.982734774024396e-20
2.6717017477616296 8.887663353681333e-25 6.302966569733441e-17 6.290084997153364e-17 1.2881572580077962e-19
2.753070231689431 9.260120974029077e-25 6.767112304072501e-17 6.750640101633842e-17 1.647220243865861e-19
2.836916847834745 9.729462856641134e-25 7.326640865386195e-17 7.30576150207494e-17 2.0879363311253852e-19
2.9233170693905177 1.0380382539065577e-24 8.054873308285823e-17 8.028636848417899e-17 2.623645986792515e-19
2.967498994190263 1.0858067838944825e-24 8.552883651659774e-17 8.523619449296366e-17 2.926420236341111e-19
3.0123486681368425 1.139699521594471e-24 9.113076949937791e-17 9.08047898676708e-17 3.259796317070767e-19
3.0578761833420214 1.2472765159722428e-24 1.0123998563286228e-16 1.0087724893416238e-16 3.6273669869988583e-19
3.1040917844459814 1.3818737469889749e-24 1.1386030780890007e-16 1.1345745091720425e-16 4.0285689169585217e-19
3.127460860933648 1.5186488933943467e-24 1.26072015069554e-16 1.256476291050361e-16 4.24385964517889e-19
3.1510058709225794 1.69850622958543e-24 1.4206457271895024e-16 1.4161771076037441e-16 4.468619585758379e-19
3.162844764501044 1.8644760798866202e-24 1.5653235742085407e-16 1.560738506198157e-16 4.585068010383574e-19
3.1747281389236908 2.0561305942606742e-24 1.7327131429692233e-16 1.7280091643701575e-16 4.703978599066015e-19
3.1986289994194426 2.586639552637873e-24 2.196186499590621e-16 2.1912365640113905e-16 4.949935579229569e-19
3.2227097969389145 3.831045513307399e-24 3.2772377127829653e-16 3.2720267870108573e-16 5.210925772106959e-19
3.2348180950136065 5.007898850264929e-24 4.3000632654103404e-16 4.2947129666992956e-16 5.350298711043669e-19
3.240889293275058 5.887556198437528e-24 5.064874570813547e-16 5.059450754661264e-16 5.423816152282646e-19
3.2469718861334385 6.905714481999158e-24 5.951913072955087e-16 5.946413185672916e-16 5.499887282169506e-19
3.2714166318528037 1.2315847511622023e-23 1.0694724301492073e-15 1.0688909748996233e-15 5.814552495839651e-19
3.2744851364798273 1.2654359784635391e-23 1.0998985626003122e-15 1.099313390573402e-15 5.851720269100867e-19
3.2775565192852394 1.3002439469663776e-23 1.1312131975472894e-15 1.130624289367924e-15 5.889081793653192e-19
3.283707930232385 1.2669193178213532e-23 1.104289424619594e-15 1.1036938177524843e-15 5.956068671093795e-19
3.2898708863219004 1.1609580170279256e-23 1.0138292152191671e-15 1.0132274962654391e-15 6.017189537279839e-19
3.29141343181113 1.1359556105936349e-23 9.924605005348247e-16 9.918572463836956e-16 6.032541511294088e-19
3.292184975758714 1.1236682051758769e-23 9.819553804483474e-16 9.813513576204167e-16 6.040228279307598e-19
3.295272960557952 1.0463135420051118e-23 9.152140403973469e-16 9.146070245642179e-16 6.070158331291393e-19
3.3076538914384823 7.77810451053429e-24 6.829096765767607e-16 6.822906312048055e-16 6.190453719551657e-19
3.310756385682612 7.23018606095695e-24 6.353984220443071e-16 6.347763428338626e-16 6.220792104445772e-19
3.313861789986515 6.724081157986934e-24 5.914755151361704e-16 5.908503914765489e-16 6.251236596215031e-19
3.3200813396944477 6.0151428291005355e-24 5.301076857602042e-16 5.294760211259481e-16 6.316646342561128e-19
3.345076488085796 4.757733247490246e-24 4.2245025298126693e-16 4.2178945782217523e-16 6.607951590917456e-19
3.3482140837626964 4.806124587505834e-24 4.271473108796743e-16 4.2648257025743712e-16 6.64740622237159e-19
3.3513546224236106 4.855027802088249e-24 4.3189834438886253e-16 4.3122963962839467e-16 6.687047604679428e-19
3.3576445397418455 5.207711274252568e-24 4.641421913694917e-16 4.634652013327469e-16 6.76990036744905e-19
3.3702598118196083 6.502206728718228e-24 5.816926656252698e-16 5.809982950331531e-16 6.943705921165956e-19
3.382922481734668 6.801547322651126e-24 6.107580549318769e-16 6.100467584267252e-16 7.112965051516831e-19
3.389271646505754 6.956446345472774e-24 6.258399050105108e-16 6.251200229686199e-16 7.198820418908891e-19
3.395632727569191 7.124237419113378e-24 6.421382319097425e-16 6.414095017203637e-16 7.287301893786537e-19
3.421196662673239 7.931988062364666e-24 7.203267196091916e-16 7.195613259627046e-16 7.65393646486858e-19
3.4276182099114902 7.774948243989513e-24 7.073907575245368e-16 7.0661714650436e-16 7.736110201769559e-19
3.4340518103208963 7.078033877547084e-24 6.451919100258363e-16 6.444105096560289e-16 7.814003698074756e-19
3.4469541582030403 6.0837919387259866e-24 5.566462578531446e-16 5.558498718623772e-16 7.963859907673506e-19
3.472904465399547 5.807898617092777e-24 5.354036115794588e-16 5.345727552133929e-16 8.308563660656136e-19
3.4990501388274233 5.385647149663936e-24 5.00215903348574e-16 4.993496924241191e-16 8.662109244549168e-19
3.5253949054701885 3.877444593236153e-24 3.6284638975899134e-16 3.619457040445799e-16 9.0068571441138e-19
3.5519380250092896 2.4544834970302843e-24 2.3141682400729704e-16 2.304813839083285e-16 9.354400989685147e-19
3.578680990867387 1.893322902106394e-24 1.798527603760134e-16 1.7887921118185127e-16 9.735491941621122e-19
3.605625307711299 1.670027730164973e-24 1.5983567112322442e-16 1.5882192151643674e-16 1.013749606787708e-18
3.660119384959845 1.5145424296163487e-24 1.4714520992602588e-16 1.4604671687085212e-16 1.0984930551737852e-18
3.715437065384467 1.4064931166403355e-24 1.3871293259505412e-16 1.375246858819741e-16 1.18824671308e-18
3.8285932144167436 1.367376192669375e-24 1.3896219724671068e-16 1.3757958175736041e-16 1.3826154893502636e-18
3.94519561050918 1.3759304127673496e-24 1.4409020009393744e-16 1.424934058811911e-16 1.5967942127463418e-18
4.06534921144712 1.4035131703413383e-24 1.514550583379537e-16 1.4962396101431233e-16 1.831097323641346e-18
4.189162171576248 1.441710194899017e-24 1.6031515370635703e-16 1.5822862769046397e-16 2.086526015893056e-18
4.316745939156006 1.487287299792852e-24 1.704200905083419e-16 1.6805729641132182e-16 2.3627940970200607e-18
4.448215356677963 1.5390834390881527e-24 1.8172614053940152e-16 1.7906928937489925e-16 2.65685116450227e-18
4.58368876423945 1.5971315439112111e-24 1.9432346299844836e-16 1.9135378553057964e-16 2.9696774678687064e-18
4.723288106065518 1.6623507673064253e-24 2.084186306957244e-16 2.0511480255812548e-16 3.3038281375989507e-18
4.867139040275056 1.7365541913289104e-24 2.2435281680692e-16 2.2070104135809174e-16 3.6517754488282614e-18
4.940699165968905 1.7795595464985527e-24 2.333836182808159e-16 2.295515024790402e-16 3.832115801775737e-18
5.015371051989984 1.823366304296172e-24 2.4274283892126906e-16 2.387265525397952e-16 4.016286381473898e-18
5.091171501069577 1.8754761513953745e-24 2.53453741090806e-16 2.492456852427797e-16 4.208055848026357e-18
5.129500256944802 1.901908982933092e-24 2.58960913630618e-16 2.546556333221102e-16 4.3052803085077816e-18
5.168117569889187 1.929241045206883e-24 2.6466000175738044e-16 2.6025577099057844e-16 4.404230766802016e-18
5.20702561229733 1.9624436124319298e-24 2.712416226537419e-16 2.6672997699038575e-16 4.511645663356148e-18
5.246226572918644 1.996230503660727e-24 2.779887134046198e-16 2.733684425964814e-16 4.620270808138348e-18
5.265937586045735 2.0133494015590628e-24 2.814260469270262e-16 2.767510176972726e-16 4.675029229753579e-18
5.285722656980489 2.0306221043868455e-24 2.849068652398775e-16 2.801767847300747e-16 4.7300805098026424e-18
5.305582063971359 2.04805132159142e-24 2.8843190923713476e-16 2.836464879375691e-16 4.7854212995657084e-18
5.3255160863122235 2.06671656367089e-24 2.9215414614609003e-16 2.873127094536558e-16 4.841436692434226e-18
5.365609099470188 2.113022483907399e-24 3.0094877587250867e-16 2.959914363857423e-16 4.957339486766422e-18
5.406003951863644 2.16072671403825e-24 3.1005992184840377e-16 3.0498538597617977e-16 5.07453587222401e-18
5.446702915881641 2.2099001584572823e-24 3.195036132418375e-16 3.143106129100168e-16 5.1930003318207905e-18
5.487708281020852 2.2627202301093485e-24 3.2960311662481947e-16 3.2428995757508343e-16 5.313159049736041e-18
5.529022354014368 2.3362075958690494e-24 3.428697813691837e-16 3.374312599368582e-16 5.4385214323254706e-18
5.570647458961463 2.4134381386504667e-24 3.5687101764902695e-16 3.5130573221096927e-16 5.5652854380576866e-18
5.612585937458331 2.4946858350770606e-24 3.71662118390981e-16 3.6596869221846723e-16 5.6934261725138024e-18
5.654840148729818 2.5835160074876114e-24 3.877938547015708e-16 3.819703699098693e-16 5.823484791701442e-18
5.67608639626678 2.644311014250476e-24 3.984106730771118e-16 3.9251918863353165e-16 5.8914844435800314e-18
5.686739436050992 2.675558165432013e-24 4.038751751351822e-16 3.9794954396641016e-16 5.92563116877217e-18
5.6974124697621304 2.7073898452056135e-24 4.094471857823332e-16 4.034873104389529e-16 5.959875343380327e-18
5.718818669136295 2.772863170188614e-24 4.2092449420702827e-16 4.1489583963625496e-16 6.028654570773213e-18
5.740305295436557 2.844967387804398e-24 4.334926279622335e-16 4.2739433682551686e-16 6.0982911367165366e-18
5.7835210386641895 3.032409689174737e-24 4.655320957327456e-16 4.592896872420997e-16 6.24240849064575e-18
5.827062130521658 3.247050955716655e-24 5.022364005186616e-16 4.958470134316453e-16 6.389387087016137e-18
5.8489554468988025 3.398435095481242e-24 5.276266536662477e-16 5.21158101897847e-16 6.468551768400815e-18
5.870931020387893 3.560184445732044e-24 5.548159135028499e-16 5.482676472279241e-16 6.5482662749259045e-18
5.892989160043636 3.733124188868028e-24 5.839524878140284e-16 5.773239589542367e-16 6.628528859791758e-18
5.915130176081913 3.929577056773803e-24 6.169920231311727e-16 6.102803464283771e-16 6.7116767027958196e-18
5.95966208400165 4.480261758410807e-24 7.087522605401638e-16 7.018523133657337e-16 6.8999471744301245e-18
6.004529249263818 5.272835875465911e-24 8.404127862680077e-16 8.333015860786756e-16 7.111200189332176e-18
6.027089341400364 5.824019331403859e-24 9.317510054835526e-16 9.245183431396187e-16 7.232662343934109e-18
6.049734195844842 6.473630205917576e-24 1.039569703539873e-15 1.0322084879680246e-15 7.361215571848502e-18
6.095279466722835 8.350230420718086e-24 1.3510191828768826e-15 1.3433440602208534e-15 7.675122656029229e-18
6.141167624020661 1.1232198536863918e-23 1.830986558191067e-15 1.8229065845175446e-15 8.079973673522183e-18
6.164241091010745 1.307303898987072e-23 2.1390729985396892e-15 2.130740173424638e-15 8.332825115051355e-18
6.187401249150058 1.5162787303598344e-23 2.490329175817741e-15 2.481736344865462e-15 8.592830952278671e-18
6.1990139391386085 1.6182471194780105e-23 2.662789823955341e-15 2.6540646179490535e-15 8.72520600628803e-18
6.204828454712694 1.671897539441673e-23 2.75365083599638e-15 2.7448587300611754e-15 8.792105935205002e-18
6.210648424152782 1.7110198049885716e-23 2.8207293323171398e-15 2.8118799341334145e-15 8.849398183725768e-18
6.233982942956859 1.8435911137179742e-23 3.0507010309567122e-15 3.041650629156011e-15 9.050401800700463e-18
6.239830258556775 1.860347546210404e-23 3.081316394108937e-15 3.0722371593615553e-15 9.079234747381538e-18
6.245683058788269 1.861504604997806e-23 3.0861248378068062e-15 3.0770167097124896e-15 9.108128094315702e-18
6.257405133728602 1.857183536064064e-23 3.0847397667729197e-15 3.0755805111915425e-15 9.15925558137759e-18
6.269149208991335 1.830269564952199e-23 3.045741896882253e-15 3.036561183936186e-15 9.180712946067021e-18
6.280915325867298 1.7637757221928902e-23 2.9405985048341897e-15 2.931433069913798e-15 9.165434920390877e-18
6.304513850009849 1.6001996234306964e-23 2.6779052091657917e-15 2.6688036246903733e-15 9.101584475418298e-18
6.32820103803542 1.3981195744489657e-23 2.3485186687063367e-15 2.3395163614385767e-15 9.002307267759493e-18
6.3519772230701035 1.2129650898754227e-23 2.045157065400238e-15 2.0362428022499335e-15 8.914263150304363e-18
6.375842739491607 1.0570137169957632e-23 1.78890654461082e-15 1.780068852050983e-15 8.837692559837012e-18
6.399797922933955 9.323286183619451e-24 1.5838159399642109e-15 1.5750125977421882e-15 8.803342222023026e-18
6.42384311029221 8.284886681656139e-24 1.4127032077791409e-15 1.4039258218437185e-15 8.777385935422598e-18
6.447978639727206 7.528908551888244e-24 1.2886205274256804e-15 1.2798360480254064e-15 8.784479400273917e-18
6.472204850670314 6.89806143393567e-24 1.1850829380490178e-15 1.1762847505658335e-15 8.798187483184292e-18
6.496522083828205 6.487819587023246e-24 1.1187913931238976e-15 1.1099526032080137e-15 8.838789915883977e-18
