Dust emission spectrum from A.P. Jones, M. Kohler, N. Ysard, M. Bocchio, and L. Verstraete (2017), A&A, 602A, 46J 
inside the DustPedia framework.

lambda    nu*dP/dnu     j_nu    j_nu(carb.) j_nu(sil)
 (um)   (erg s-1 H-1) (Jy cm2 sr-1 H-1)
0.9927057738263894 7.1013599006763965e-25 1.8712486687472314e-17 1.871248667635311e-17 1.1119200932765705e-26
1.0001793341362166 7.218185361301179e-25 1.9163522473140747e-17 1.9163522459746228e-17 1.339451486555814e-26
1.0077091589558085 7.334839376236284e-25 1.9619830299780387e-17 1.9619830283665693e-17 1.6114695163625405e-26
1.0114953028030835 7.393087865544212e-25 1.9849938754576204e-17 1.9849938736909334e-17 1.7666871484976642e-26
1.0152956718711033 7.451276470067195e-25 2.0081337974789523e-17 2.0081337955427224e-17 1.9362299240824446e-26
1.0229392996569957 7.5673942089982145e-25 2.0547815388810134e-17 2.0547815365575515e-17 2.3234619353154694e-26
1.0267826658714554 7.625182126886207e-25 2.0782518826412668e-17 2.078251880097196e-17 2.5440709067193386e-26
1.0306404723013447 7.682884853702161e-25 2.101846278706735e-17 2.1018462759220106e-17 2.784724201343099e-26
1.03451277320114 7.740496884789072e-25 2.1255637287734524e-17 2.125563725726298e-17 3.047154109745206e-26
1.0383996230291617 7.798012747562497e-25 2.1494032224373143e-17 2.14940321910408e-17 3.3332343487137095e-26
1.0403485208654093 7.826732914680171e-25 2.1613684166199717e-17 2.1613684131342018e-17 3.4857701964061407e-26
1.0423010764483396 7.855427002570554e-25 2.173363737444904e-17 2.1733637337999135e-17 3.6449908783922474e-26
1.0462171883269815 7.912734244530853e-25 2.197444239944806e-17 2.1974442359601917e-17 3.984613486262983e-26
1.0471985131304309 7.927043704136396e-25 2.2034829913770545e-17 2.2034829873029084e-17 4.074146422413426e-26
1.048180758391296 7.941346056060517e-25 2.2095291603164108e-17 2.2095291561508046e-17 4.1656067087472257e-26
1.0501480137395462 7.969929103344177e-25 2.2216436847392717e-17 2.2216436803848038e-17 4.354468187635072e-26
1.0521189612883777 7.998482720779316e-25 2.233787680832149e-17 2.233787676280625e-17 4.551523387301411e-26
1.0531058218030118 8.012726284211808e-25 2.2398645388735763e-17 2.2398645342203403e-17 4.65323538565515e-26
1.0540936079674168 8.026890157984654e-25 2.2459285342979957e-17 2.245928529540849e-17 4.7571459613893156e-26
1.058054026499678 8.083464980405548e-25 2.2702560332870945e-17 2.27025602809163e-17 5.19546448078501e-26
1.0590464539527713 8.097588109691545e-25 2.2763557023953662e-17 2.2763556970844205e-17 5.310945952857131e-26
1.06003981227728 8.1117028457327395e-25 2.2824624551249922e-17 2.282462449696108e-17 5.428884425850395e-26
1.0620293250338977 8.1399068139018135e-25 2.2946971428897804e-17 2.2946971372174483e-17 5.672332334745473e-26
1.0660195594769086 8.196210474234725e-25 2.3192507655772593e-17 2.319250759386292e-17 6.190966021856496e-26
1.070024785945596 8.252370818073722e-25 2.34391579403633e-17 2.3439157872814957e-17 6.754834849994669e-26
1.0740450607676866 8.30838274385532e-25 2.368691111423084e-17 2.368691104055405e-17 7.36767948882859e-26
1.07808044048254 8.364241192618738e-25 2.3935755916163254e-17 2.3935755835827937e-17 8.033531778740036e-26
1.0861967418109137 8.475378597697902e-25 2.44363893466396e-17 2.443638925121988e-17 9.541972072739778e-26
1.0902777775684922 8.530422443236499e-25 2.4687501087103422e-17 2.468750098316063e-17 1.0394280350970986e-25
1.0943741465085532 8.585289100238644e-25 2.493964009762723e-17 2.4939639984436438e-17 1.131908065618957e-25
1.1026131145906286 8.69447167427638e-25 2.5446952766827714e-17 2.5446952632728343e-17 1.3409936494281934e-25
1.1109141095355224 8.802888454359802e-25 2.5958232292894623e-17 2.595823213422766e-17 1.586669643174582e-25
1.1192775983109025 8.910401379193829e-25 2.647308246593294e-17 2.6473082278436777e-17 1.8749616150048378e-25
1.1277040513999907 9.016510351088844e-25 2.6990010862092866e-17 2.6990010640810717e-17 2.2128214069746225e-25
1.1361939428280308 9.121730403416212e-25 2.7510541260236287e-17 2.7510540999410507e-17 2.6082577337007657e-25
1.1447477501889525 9.226027198857488e-25 2.8034574075085504e-17 2.8034573768036946e-17 3.070485519378203e-25
1.1533659546722406 9.329424193779711e-25 2.856218323108992e-17 2.8562182870080077e-17 3.610098424103445e-25
1.1707974979042381 9.533856757791833e-25 2.9629194249941336e-17 2.962919375274887e-17 4.971924628659611e-25
1.1884924949847024 9.734259357748564e-25 3.0709220303007997e-17 3.0709219621641925e-17 6.813660633638332e-25
1.2064549276569216 9.932209534156124e-25 3.180727089597393e-17 3.1807269966757825e-17 9.292161100062386e-25
1.2246888378427687 1.0125549041201166e-24 3.2916509356094055e-17 3.291650809499964e-17 1.2610944054983412e-24
1.2431983285522175 1.0313832374200624e-24 3.403532636052425e-17 3.403532465720721e-17 1.703317042542572e-24
1.2619875648066055 1.0496998149325438e-24 3.516330026782122e-17 3.5163297978082975e-17 2.2897382482494133e-24
1.3004222497298317 1.0844966354911843e-24 3.743536169390286e-17 3.743535761370192e-17 4.080200926767401e-24
1.3400274889804893 1.1168167281982104e-24 3.972510473571754e-17 3.972509759676076e-17 7.138956781743952e-24
1.3808389325824078 1.1465487101949703e-24 4.20247333587616e-17 4.2024721088735905e-17 1.2270025694857429e-23
1.4228933163050095 1.1738457132736097e-24 4.433562047190551e-17 4.43355997453873e-17 2.0726518217171395e-23
1.466228494730424 1.1993701991797855e-24 4.6679300787043176e-17 4.667926636050687e-17 3.442653631963412e-23
1.5108834753276823 1.2226413855653176e-24 4.903424544544473e-17 4.903418919353369e-17 5.62519110378992e-23
1.5568984535646726 1.243273455617561e-24 5.138026995020167e-17 5.138017943759232e-17 9.051260936256095e-23
1.6043148490894465 1.2613163215804545e-24 5.371345049237047e-17 5.3713306810266707e-17 1.4368210375473473e-22
1.6531753430134553 1.2768376999943833e-24 5.603044212886062e-17 5.603021736669211e-17 2.247621684963886e-22
1.7035239163302658 1.290029838038796e-24 5.833341792129911e-17 5.833307136300283e-17 3.4655829625220015e-22
1.755405889504358 1.301932353153085e-24 6.066460910619315e-17 6.066408214270732e-17 5.269634858183075e-22
1.8088679632656115 1.312311618103101e-24 6.301055049154785e-17 6.300976001065609e-17 7.904808917632898e-22
1.8639582606462262 1.321016466773024e-24 6.536027146488537e-17 6.535910120349598e-17 1.170261389412397e-21
1.9207263702978936 1.3281925810990195e-24 6.771673062114197e-17 6.771502012993416e-17 1.7104912078239033e-21
1.979223391128241 1.334152397348283e-24 7.009219958694666e-17 7.008973028127136e-17 2.4693056753136544e-21
2.039501978296691 1.3392663685837094e-24 7.250375960175761e-17 7.250023749642625e-17 3.522105331369045e-21
2.1016163906111602 1.3445308960470966e-24 7.500559598855931e-17 7.50006302340741e-17 4.965754485202377e-21
2.1656225393682647 1.3505378180396445e-24 7.763524820024032e-17 7.762832549256922e-17 6.922707671124768e-21
2.231578038680979 1.3573577285788174e-24 8.040366250054268e-17 8.039411668962575e-17 9.545810916904934e-21
2.299542257339062 1.3653610928430336e-24 8.33409316247604e-17 8.332790799804046e-17 1.3023626719914504e-20
2.369576372248914 1.3753268972812863e-24 8.65059700126003e-17 8.648838359044069e-17 1.758642215962835e-20
2.4417434235010123 1.3881714245689958e-24 8.997307425268654e-17 8.99495625431761e-17 2.3511709510458592e-20
2.5161083711144245 1.4054398736058176e-24 9.386659115862314e-17 9.383545991008757e-17 3.113124853556518e-20
2.5927381535095444 1.4296358172986014e-24 9.839057799924097e-17 9.834974083412002e-17 4.08371651209578e-20
2.6717017477616296 1.4637338777253208e-24 1.0380530102400396e-16 1.0375221533179972e-16 5.3085692204245757e-20
2.753070231689431 1.512186767276144e-24 1.1050760252041913e-16 1.1043919978914926e-16 6.840273126987847e-20
2.836916847834745 1.5850269957826401e-24 1.1935832153482815e-16 1.1927093012229005e-16 8.739141253810973e-20
2.9233170693905177 1.7042765770765753e-24 1.3224687875391711e-16 1.3213616079926203e-16 1.1071795465511698e-19
2.967498994190263 1.8029845162792834e-24 1.4202081827275965e-16 1.4189677616056032e-16 1.2404211219933103e-19
3.0123486681368425 1.9177545563238184e-24 1.53344320250503e-16 1.5320553469106187e-16 1.3878555944116036e-19
3.0578761833420214 2.1691018306677235e-24 1.7606347538888687e-16 1.7590835752402228e-16 1.55117864864638e-19
3.1040917844459814 2.491770441323562e-24 2.0531090489012892e-16 2.0513785348263937e-16 1.7305140748962392e-19
3.127460860933648 2.830385007079349e-24 2.349669780929995e-16 2.347842606765021e-16 1.827174164974588e-19
3.1510058709225794 3.2806840556835283e-24 2.7439933423753823e-16 2.742064941761437e-16 1.9284006139450224e-19
3.162844764501044 3.6987988346492825e-24 3.1053318809451714e-16 3.103350912771394e-16 1.980968173777579e-19
3.1747281389236908 4.1847124654727145e-24 3.526481396031623e-16 3.52444666308785e-16 2.0347329437729381e-19
3.1986289994194426 5.538813411658839e-24 4.702729928501791e-16 4.700583723245322e-16 2.1462052564691386e-19
3.2227097969389145 8.727106527159406e-24 7.465534547928061e-16 7.463269719381815e-16 2.2648285462441947e-19
3.2348180950136065 1.1749248842455872e-23 1.0088565055769187e-15 1.008623679007427e-15 2.328265694917794e-19
3.240889293275058 1.4008409610253914e-23 1.2050982652419436e-15 1.2048620920311768e-15 2.3617321076669583e-19
3.2469718861334385 1.6621955515444485e-23 1.4326169231052785e-15 1.4323772866534313e-15 2.396364518474486e-19
3.2714166318528037 3.0558913625218114e-23 2.6536473098291443e-15 2.653393320067143e-15 2.5398976200112372e-19
3.2744851364798273 3.143037982501531e-23 2.731882938360145e-15 2.7316272457911193e-15 2.5569256902616907e-19
3.2775565192852394 3.2326844040657816e-23 2.8124378274679774e-15 2.8121804224886725e-15 2.5740497930455827e-19
3.283707930232385 3.146594227891331e-23 2.742677201737502e-15 2.74241671183955e-15 2.6048989795145637e-19
3.2898708863219004 2.873385117054596e-23 2.509239555193858e-15 2.508976236945609e-15 2.6331824824968894e-19
3.29141343181113 2.808953730201005e-23 2.4541237342871165e-15 2.4538597052455756e-15 2.6402904154148205e-19
3.292184975758714 2.777294150038249e-23 2.427032215698334e-15 2.4267678307029727e-15 2.643849953609281e-19
3.295272960557952 2.5774741968196526e-23 2.254525511703352e-15 2.254259738187631e-15 2.6577351572045353e-19
3.3076538914384823 1.885156625350892e-23 1.6551483713947715e-15 1.6548770097034734e-15 2.713616912980191e-19
3.310756385682612 1.7442308589417214e-23 1.5328534094541268e-15 1.5325806368673878e-15 2.727725867390939e-19
3.313861789986515 1.6141964274976224e-23 1.4199080008887924e-15 1.4196338118409352e-15 2.7418904785782283e-19
3.3200813396944477 1.431870320070849e-23 1.261891002835893e-15 1.2616137765480462e-15 2.772262878466709e-19
3.345076488085796 1.1068927878883777e-23 9.828359723892733e-16 9.825452329629807e-16 2.907394262928064e-19
3.3482140837626964 1.1191438149903415e-23 9.94646023749512e-16 9.943534544214033e-16 2.925693281086254e-19
3.3513546224236106 1.1315297393099933e-23 1.0065973686588257e-15 1.0063029599379605e-15 2.944087208655007e-19
3.3576445397418455 1.2217907889893415e-23 1.0889325930957332e-15 1.0886343421327067e-15 2.9825096302658667e-19
3.3702598118196083 1.5544899375493887e-23 1.3906592533686078e-15 1.390352939942991e-15 3.0631342561715206e-19
3.382922481734668 1.6304523358207393e-23 1.4640961093789162e-15 1.4637819177986053e-15 3.141915803115531e-19
3.389271646505754 1.6698018256897405e-23 1.5022449165530398e-15 1.5019267233351017e-15 3.181932179383246e-19
3.395632727569191 1.712214475100305e-23 1.5432927217465047e-15 1.542970404043719e-15 3.2231770278656453e-19
3.421196662673239 1.9158563403664855e-23 1.7398444148530978e-15 1.7395049749499644e-15 3.3943990313306065e-19
3.4276182099114902 1.8750544490015784e-23 1.7059871595986002e-15 1.705643853182776e-15 3.4330641582427966e-19
3.4340518103208963 1.695849024160136e-23 1.5458361600729014e-15 1.545489174590434e-15 3.4698548246708255e-19
3.4469541582030403 1.4406331070155597e-23 1.3181302648681501e-15 1.3177761726632023e-15 3.5409220494802205e-19
3.472904465399547 1.3694230560041258e-23 1.2624084859315237e-15 1.2620380824182579e-15 3.7040351326571517e-19
3.4990501388274233 1.260344852424333e-23 1.1706012692003091e-15 1.1702140654326938e-15 3.872037676151443e-19
3.5253949054701885 8.712416368002319e-24 8.152969692258989e-16 8.148932741340246e-16 4.0369509187425103e-19
3.5519380250092896 5.054366562128399e-24 4.765424003019903e-16 4.761219895328997e-16 4.2041076909058456e-19
3.578680990867387 3.606418498642137e-24 3.4258515614546636e-16 3.4214639514831103e-16 4.387609971553305e-19
3.605625307711299 3.023394991206667e-24 2.893642774676415e-16 2.88906098642829e-16 4.5817882481242915e-19
3.660119384959845 2.603824569222213e-24 2.5297430125202926e-16 2.524749265872946e-16 4.993746647346712e-19
3.715437065384467 2.3094620919967427e-24 2.2776667422532184e-16 2.2722327715022733e-16 5.433970750944449e-19
3.8285932144167436 2.1750093957136217e-24 2.210394522597092e-16 2.2039932320267777e-16 6.401290570315008e-19
3.94519561050918 2.1668785112927615e-24 2.2691987572500904e-16 2.2617097551537146e-16 7.489002096375248e-19
4.06534921144712 2.2120023095507493e-24 2.3870024586603597e-16 2.3782973248862237e-16 8.705133774136008e-19
4.189162171576248 2.2891540848571663e-24 2.545491391195418e-16 2.53542955206085e-16 1.0061839134568767e-18
4.316745939156006 2.3906058086071467e-24 2.739264016638487e-16 2.7276979744872116e-16 1.1566042151274911e-18
4.448215356677963 2.5139841215821178e-24 2.968368187127825e-16 2.955156805946622e-16 1.3211381181203598e-18
4.58368876423945 2.659992348862507e-24 3.2364204861579937e-16 3.221407825954837e-16 1.5012660203156875e-18
4.723288106065518 2.8316287155146502e-24 3.550178404781101e-16 3.5331839697195764e-16 1.6994435061523604e-18
4.867139040275056 3.034474366374689e-24 3.920366407359702e-16 3.901236160553118e-16 1.9130246806582713e-18
4.940699165968905 3.1542480523261894e-24 4.1366967733984806e-16 4.116430481764651e-16 2.0266291633828015e-18
5.015371051989984 3.2786867974210724e-24 4.3648812598129456e-16 4.3434335707754853e-16 2.1447689037459507e-18
5.091171501069577 3.4266476593546354e-24 4.630806251614105e-16 4.608109133668545e-16 2.2697117945560075e-18
5.129500256944802 3.5027482407880215e-24 4.769286505254475e-16 4.745946720393788e-16 2.3339784860686395e-18
5.168117569889187 3.5818842319420044e-24 4.913753465258909e-16 4.889754501187396e-16 2.399896407151492e-18
5.20702561229733 3.6764177363214525e-24 5.081407211069189e-16 5.056697907627115e-16 2.4709303442073115e-18
5.246226572918644 3.7733651117711935e-24 5.254668289576594e-16 5.229233844276029e-16 2.5434445300564403e-18
5.265937586045735 3.822767378387104e-24 5.343465524602903e-16 5.317662907361031e-16 2.580261724187325e-18
5.285722656980489 3.8728015452416335e-24 5.433742425866676e-16 5.407567875858026e-16 2.617455000864965e-18
5.305582063971359 3.92347749266629e-24 5.525526104391375e-16 5.498975840601146e-16 2.6550263790227378e-18
5.3255160863122235 3.97748696184184e-24 5.622635089739162e-16 5.595703263148707e-16 2.6931826590456534e-18
5.365609099470188 4.108766658656739e-24 5.851941026116941e-16 5.824218525188691e-16 2.772250092825203e-18
5.406003951863644 4.244833392020442e-24 6.091250231870153e-16 6.062720393932005e-16 2.8529837938147217e-18
5.446702915881641 4.385908353113999e-24 6.341071838945558e-16 6.311717797512984e-16 2.9354041432573027e-18
5.487708281020852 4.537484605841351e-24 6.609606648764416e-16 6.579408837592489e-16 3.0197811171926722e-18
5.529022354014368 4.742497823068043e-24 6.960251283380876e-16 6.929170300052144e-16 3.1080983328728542e-18
5.570647458961463 4.958942226809701e-24 7.332704039946445e-16 7.300720937487642e-16 3.1983102458801336e-18
5.612585937458331 5.187615597229456e-24 7.728589208127029e-16 7.69568477861901e-16 3.290442950802168e-18
5.654840148729818 5.437635951600977e-24 8.162062089120997e-16 8.128213627283399e-16 3.3848461837599033e-18
5.67608639626678 5.6050268128479135e-24 8.444931375649713e-16 8.410589362143337e-16 3.4342013506378218e-18
5.686739436050992 5.691185886279849e-24 8.590838077246643e-16 8.556247257200396e-16 3.459082004624704e-18
5.6974124697621304 5.779038815489318e-24 8.739824387386173e-16 8.704983400104244e-16 3.4840987281928856e-18
5.718818669136295 5.9599864232485434e-24 9.047342464128884e-16 9.011997039481112e-16 3.534542464776862e-18
5.740305295436557 6.1586205085321744e-24 9.383997160424644e-16 9.348138919671958e-16 3.585824075268576e-18
5.7835210386641895 6.668961075274366e-24 1.023811339482131e-15 1.0201190113584645e-15 3.692328123666412e-18
5.827062130521658 7.253995106045183e-24 1.1220089986656913e-15 1.1182070545236073e-15 3.8019441420837235e-18
5.8489554468988025 7.6611015488306e-24 1.1894302112703414e-15 1.1855694815124542e-15 3.8607297578876526e-18
5.870931020387893 8.097046297928607e-24 1.2618363477896745e-15 1.2579161122428326e-15 3.920235546841939e-18
5.892989160043636 8.564130369314415e-24 1.3396407357777359e-15 1.3356602673547654e-15 3.980468422970576e-18
5.915130176081913 9.09399099940597e-24 1.4278686545637433e-15 1.4238258170978406e-15 4.042837465902568e-18
5.95966208400165 1.0568502233663949e-23 1.671877727807143e-15 1.6676955977215702e-15 4.182130085572773e-18
6.004529249263818 1.2684651302059007e-23 2.0217475748113563e-15 2.0174100044471455e-15 4.3375703642099955e-18
6.027089341400364 1.415197652479908e-23 2.264092477416744e-15 2.2596665290341965e-15 4.425948382548281e-18
6.049734195844842 1.5883146637258906e-23 2.5505995115201686e-15 2.5460801593784097e-15 4.519352141758833e-18
6.095279466722835 2.087527427796863e-23 3.3774991319253502e-15 3.372755353116839e-15 4.743778808511677e-18
6.141167624020661 2.854436771636523e-23 4.653083136769432e-15 4.648054424464292e-15 5.028712305140631e-18
6.164241091010745 3.3441450955270393e-23 5.4718497226111004e-15 5.46664532453746e-15 5.204398073640467e-18
6.187401249150058 3.901390539754916e-23 6.407625783357986e-15 6.4022400004702105e-15 5.385782887775416e-18
6.1990139391386085 4.173573082776221e-23 6.867522148245949e-15 6.862043850192657e-15 5.478298053292058e-18
6.204828454712694 4.3168920468207696e-23 7.110013091833275e-15 7.104487962033781e-15 5.525129799495013e-18
6.210648424152782 4.4216592057835896e-23 7.289397693060126e-15 7.28383187222528e-15 5.565820834842037e-18
6.233982942956859 4.7778085532342823e-23 7.90612699888255e-15 7.900415895951596e-15 5.711102930951768e-18
6.239830258556775 4.8235032546638815e-23 7.989227435437845e-15 7.983493640722939e-15 5.7337947149043165e-18
6.245683058788269 4.827800257714426e-23 8.003844979647607e-15 7.998088416561235e-15 5.756563086372225e-18
6.257405133728602 4.8187902523462756e-23 8.003901407963756e-15 7.998103489142271e-15 5.797918821481167e-18
6.269149208991335 4.749779020769894e-23 7.904082131677172e-15 7.898261821915116e-15 5.8203097620546575e-18
6.280915325867298 4.5755833177598434e-23 7.628494537967905e-15 7.62267540927024e-15 5.819128697663355e-18
6.304513850009849 4.1455736323970035e-23 6.9375427056879836e-15 6.931747365895861e-15 5.795339792120371e-18
6.32820103803542 3.61232285981573e-23 6.067869893757484e-15 6.062121134287357e-15 5.74875947012596e-18
6.3519772230701035 3.123375270466833e-23 5.266262859178972e-15 5.260553420965417e-15 5.709438213555732e-18
6.375842739491607 2.711933595566541e-23 4.589718827346479e-15 4.584041370875082e-15 5.6774564713984185e-18
6.399797922933955 2.382770367783213e-23 4.04778917588086e-15 4.042116011659406e-15 5.673164221453025e-18
6.42384311029221 2.1091029197063814e-23 3.596351494828112e-15 3.5906770711790535e-15 5.6744236490583885e-18
6.447978639727206 1.91021748795269e-23 3.2694585806942764e-15 3.2637609763215253e-15 5.697604372750829e-18
6.472204850670314 1.7446634879154346e-23 2.9973217141761863e-15 2.9915963596043218e-15 5.725354571863994e-18
6.496522083828205 1.6377062696447438e-23 2.8241409218721227e-15 2.818369748383798e-15 5.771173488323897e-18
6.520930681187647 1.5478068474654224e-23 2.679142293446959e-15 2.6733221711586574e-15 5.820122288301137e-18
