Dust emission spectrum from A.P. Jones, M. Kohler, N. Ysard, M. Bocchio, and L. Verstraete (2017), A&A, 602A, 46J 
inside the DustPedia framework.

lambda    nu*dP/dnu     j_nu    j_nu(carb.) j_nu(sil)
 (um)   (erg s-1 H-1) (Jy cm2 sr-1 H-1)
0.9927057738263894 4.1932011303288985e-22 1.1049323147486108e-14 1.1049321265292135e-14 1.882193969996123e-21
1.0001793341362166 4.263765519806409e-22 1.1319848725010242e-14 1.1319846459770088e-14 2.2652401518081186e-21
1.0077091589558085 4.334598008200495e-22 1.159453847267455e-14 1.1594535750057274e-14 2.7226172753254474e-21
1.0114953028030835 4.370111368456461e-22 1.1733452191042301e-14 1.1733449207680883e-14 2.983361419736817e-21
1.0152956718711033 4.405687704758776e-22 1.1873415805471763e-14 1.1873412537484012e-14 3.2679877562283535e-21
1.0229392996569957 4.47698953717183e-22 1.2156411040151089e-14 1.215640712272436e-14 3.9174267252652744e-21
1.0267826658714554 4.51263398691093e-22 1.2299234199142116e-14 1.2299229912081056e-14 4.287061060511487e-21
1.0306404723013447 4.548334633585848e-22 1.244311271866678e-14 1.2443108028656771e-14 4.6900100084236766e-21
1.03451277320114 4.584090314909951e-22 1.258804989889196e-14 1.258804476976787e-14 5.129124091672957e-21
1.0383996230291617 4.619899903488528e-22 1.273404912424644e-14 1.27340435167627e-14 5.6074837365986134e-21
1.0403485208654093 4.637824570465234e-22 1.2807448085555714e-14 1.2807442223145333e-14 5.8624103813841214e-21
1.0423010764483396 4.655762307782171e-22 1.2881113867629868e-14 1.288110773921327e-14 6.1284165982199544e-21
1.0462171883269815 4.691676473070096e-22 1.3029247694699631e-14 1.302924099918354e-14 6.695516091016542e-21
1.0471985131304309 4.700662982030969e-22 1.3066448622827937e-14 1.3066441777875437e-14 6.844952497769301e-21
1.048180758391296 4.709652646791285e-22 1.3103716655320891e-14 1.3103709657742107e-14 6.99757878296074e-21
1.0501480137395462 4.727641382413221e-22 1.3178454268235916e-14 1.3178446955574715e-14 7.312661201714213e-21
1.0521189612883777 4.7456425588798405e-22 1.3253461007196725e-14 1.3253453365900408e-14 7.641296315099014e-21
1.0531058218030118 4.754635793162906e-22 1.3291031954191137e-14 1.32910241433115e-14 7.810879639927756e-21
1.0540936079674168 4.763592838180337e-22 1.3328560464234582e-14 1.3328552480135744e-14 7.984098835465958e-21
1.058054026499678 4.799449799156554e-22 1.3479343189344836e-14 1.3479334474900094e-14 8.714444742310609e-21
1.0590464539527713 4.808421165387219e-22 1.3517206347217771e-14 1.3517197440438686e-14 8.906779087650201e-21
1.06003981227728 4.817395354887474e-22 1.3555136619444245e-14 1.3555127516274351e-14 9.103169898086112e-21
1.0620293250338977 4.835352150765312e-22 1.3631198758046321e-14 1.3631189249598782e-14 9.508447540281004e-21
1.0660195594769086 4.871299048864486e-22 1.3784131195690895e-14 1.378412082433006e-14 1.0371360835820516e-20
1.070024785945596 4.907289692315978e-22 1.3938144648734989e-14 1.3938133339889263e-14 1.1308845725434267e-20
1.0740450607676866 4.943323323938936e-22 1.409324338959278e-14 1.4093231062592558e-14 1.2327000220209391e-20
1.07808044048254 4.979399231461592e-22 1.42494318215709e-14 1.424941838918028e-14 1.3432390623227068e-20
1.0861967418109137 5.051619779723359e-22 1.4564936108227155e-14 1.456492017453663e-14 1.5933690520491737e-20
1.0902777775684922 5.087637093179288e-22 1.472389522376309e-14 1.4723877878372228e-14 1.7345390865638203e-20
1.0943741465085532 5.123692117250663e-22 1.4883952757249517e-14 1.488393388127069e-14 1.8875978827428573e-20
1.1026131145906286 5.195913496747902e-22 1.5207383528944657e-14 1.5207361196600856e-14 2.2332343794624137e-20
1.1109141095355224 5.268280832354046e-22 1.5535270989685194e-14 1.553524460250654e-14 2.638717865759935e-20
1.1192775983109025 5.340734913148273e-22 1.5867491234974347e-14 1.5867460097191386e-14 3.1137782959917545e-20
1.1277040513999907 5.413012505289208e-22 1.620330489575242e-14 1.6203268199572483e-14 3.669617994083009e-20
1.1361939428280308 5.485423509086077e-22 1.654367791006692e-14 1.6543634718901155e-14 4.3191165764210996e-20
1.1447477501889525 5.557968480181868e-22 1.6888664612211903e-14 1.6888613841590525e-14 5.077062138123807e-20
1.1533659546722406 5.630675205759136e-22 1.723840331420188e-14 1.7238343710006567e-14 5.960419531753412e-20
1.1707974979042381 5.776799976159734e-22 1.7953062751525598e-14 1.7952980912194093e-14 8.183933150961718e-20
1.1884924949847024 5.923601489293099e-22 1.8687521714441132e-14 1.8687409908095808e-14 1.118063453223569e-19
1.2064549276569216 6.072090246606286e-22 1.944548377824943e-14 1.944533178604782e-14 1.5199220161432515e-19
1.2246888378427687 6.221305652340176e-22 2.0224450533902435e-14 2.0224244924604654e-14 2.0560929777743836e-19
1.2431983285522175 6.37114348566321e-22 2.1024575536703147e-14 2.102429874428552e-14 2.7679241762814836e-19
1.2619875648066055 6.521841179863335e-22 2.1847146817046277e-14 2.18467759805618e-14 3.7083648447802075e-19
1.3004222497298317 6.824991637707412e-22 2.3558950959743786e-14 2.3558294693356362e-14 6.5626638742902e-19
1.3400274889804893 7.131958349538835e-22 2.5368333519080548e-14 2.53671934218119e-14 1.1400972686499125e-18
1.3808389325824078 7.444291436038125e-22 2.7285745460497325e-14 2.7283800227697514e-14 1.9452327998095578e-18
1.4228933163050095 7.7652233938392e-22 2.93288967515759e-14 2.932563550006952e-14 3.2612515063812872e-18
1.466228494730424 8.101170295778182e-22 3.152962823507704e-14 3.152425300264784e-14 5.3752324292055994e-18
1.5108834753276823 8.452576687847073e-22 3.389920583840694e-14 3.389049215464679e-14 8.713683760155695e-18
1.5568984535646726 8.82063479036194e-22 3.6452688233082195e-14 3.643878051284336e-14 1.390772023883175e-17
1.6043148490894465 9.209392744675381e-22 3.921841434954933e-14 3.9196518046122755e-14 2.18963034265918e-17
1.6531753430134553 9.623548933984206e-22 4.223024599150168e-14 4.219628097542668e-14 3.3965016075008327e-17
1.7035239163302658 1.0068848891098196e-21 4.55299833408331e-14 4.5478062655829536e-14 5.192068500356479e-17
1.755405889504358 1.0556723640652934e-21 4.918992231442119e-14 4.9111667154447216e-14 7.825515997396653e-17
1.8088679632656115 1.1091906481646321e-21 5.3257711336850574e-14 5.3141378517503324e-14 1.1633281934726964e-16
1.8639582606462262 1.1679930794860581e-21 5.778909397760968e-14 5.761845444109441e-14 1.7063953651527098e-16
1.9207263702978936 1.2329013460154636e-21 6.285839080767184e-14 6.261132802578703e-14 2.4706278188479953e-16
1.979223391128241 1.304929328394414e-21 6.855691082553617e-14 6.820368590562253e-14 3.5322491991365395e-16
2.039501978296691 1.3851880798541994e-21 7.498981972583729e-14 7.449097579893493e-14 4.988439269023576e-16
2.1016163906111602 1.4753190641287668e-21 8.230170537813033e-14 8.160552021425271e-14 6.961851638776245e-16
2.1656225393682647 1.576801085202708e-21 9.064192203800033e-14 8.968146290921725e-14 9.604591287830637e-16
2.231578038680979 1.6908004496270472e-21 1.0015528393529527e-13 9.884501610412525e-14 1.3102678311700467e-15
2.299542257339062 1.8188216253661894e-21 1.1101992689834583e-13 1.0925185919075119e-13 1.7680677075946268e-15
2.369576372248914 1.9626416722019437e-21 1.2344717606890305e-13 1.2108651709069844e-13 2.360658978204627e-15
2.4417434235010123 2.1241767148885462e-21 1.3767659088201886e-13 1.3455704590999831e-13 3.11954497202049e-15
2.5161083711144245 2.305750943031758e-21 1.5399661354981202e-13 1.499152032178576e-13 4.081410331954399e-15
2.5927381535095444 2.5101359432110354e-21 1.727528950525862e-13 1.6746450487140986e-13 5.288390181176395e-15
2.6717017477616296 2.7399930208028796e-21 1.9431524039746735e-13 1.875272758426323e-13 6.787964554835012e-15
2.753070231689431 2.998347749873933e-21 2.191132924393292e-13 2.1048030423716362e-13 8.632988202165589e-15
2.836916847834745 3.2904019685795466e-21 2.477792852673951e-13 2.368973781381515e-13 1.0881907129243688e-14
2.9233170693905177 3.6252364226936075e-21 2.813077455236917e-13 2.6771206780458593e-13 1.3595677719105805e-14
2.967498994190263 3.814348701275497e-21 3.004556716053749e-13 2.8533793832297e-13 1.5117733282405064e-14
3.0123486681368425 4.016176901616586e-21 3.211348996425887e-13 3.043466888857396e-13 1.6788210756849082e-14
3.0578761833420214 4.277337556352983e-21 3.47186519754626e-13 3.2856201575414596e-13 1.862450400048011e-14
3.1040917844459814 4.5682709657928e-21 3.764053984331026e-13 3.5578468309709027e-13 2.0620715336012253e-14
3.127460860933648 4.781354486689187e-21 3.9692847867649383e-13 3.752397654999065e-13 2.1688713176587298e-14
3.1510058709225794 5.034440878232984e-21 4.210851157252186e-13 3.982837658935053e-13 2.2801349831713264e-14
3.162844764501044 5.233713966854864e-21 4.3939720875800135e-13 4.1602029749104034e-13 2.3376911266961008e-14
3.1747281389236908 5.45478007446384e-21 4.596774715289252e-13 4.3571345814983413e-13 2.3964013379091033e-14
3.1986289994194426 6.027774343669757e-21 5.117882243254925e-13 4.866117611514403e-13 2.5176463174051956e-14
3.2227097969389145 7.252643982832425e-21 6.204217176581397e-13 5.93961109392803e-13 2.6460608265336893e-14
3.2348180950136065 8.367361335781025e-21 7.184686469157289e-13 6.913228995499987e-13 2.7145747365730158e-14
3.240889293275058 9.190065646662396e-21 7.905916857361006e-13 7.630845445839399e-13 2.7507141152160532e-14
3.2469718861334385 1.014006008740843e-20 8.739538298624333e-13 8.460727528897401e-13 2.7881076972693045e-14
3.2714166318528037 1.5099021519126517e-20 1.3111551780498368e-12 1.2817293047045033e-12 2.9425873345333655e-14
3.2744851364798273 1.541440465754037e-20 1.3397976519328681e-12 1.3101898629686554e-12 2.96077889642127e-14
3.2775565192852394 1.5737976965755212e-20 1.3692051624538653e-12 1.3394145611032476e-12 2.979060135061761e-14
3.283707930232385 1.5459678995603905e-20 1.3475175398080366e-12 1.3174002819156491e-12 3.01172578923874e-14
3.2898708863219004 1.452709038169209e-20 1.2686064806023503e-12 1.2381921962521317e-12 3.0414284350218477e-14
3.29141343181113 1.4306969628337562e-20 1.2499698144944394e-12 1.2194809516784061e-12 3.04888628160332e-14
3.292184975758714 1.4198781944850975e-20 1.2408084755212035e-12 1.2102822751422541e-12 3.0526200378949575e-14
3.295272960557952 1.3518349009424137e-20 1.1824546199322815e-12 1.151783230564959e-12 3.067138936732249e-14
3.3076538914384823 1.1148739789887661e-20 9.788480308845397e-13 9.47593618475446e-13 3.1254412409093736e-14
3.310756385682612 1.0663320020928586e-20 9.371068265641186e-13 9.057054844271432e-13 3.140134213697506e-14
3.313861789986515 1.0214262210555615e-20 8.984849915959391e-13 8.669362494438407e-13 3.1548742152098676e-14
3.3200813396944477 9.594289258275471e-21 8.455337836057541e-13 8.136678834419128e-13 3.186590016384131e-14
3.345076488085796 8.566746659978238e-21 7.606614548311011e-13 7.27381870152169e-13 3.3279584678932056e-14
3.3482140837626964 8.624787669070129e-21 7.66533366473411e-13 7.330622640125804e-13 3.3471102460830685e-14
3.3513546224236106 8.683286773701935e-21 7.724563760072584e-13 7.387929065835437e-13 3.366346942371467e-14
3.3576445397418455 9.031868966194532e-21 8.049738615229395e-13 7.709081546488722e-13 3.406570687406739e-14
3.3702598118196083 1.0254600445958425e-20 9.17384838286665e-13 8.824754467288757e-13 3.490939155778952e-14
3.382922481734668 1.0585273617812656e-20 9.505250524695325e-13 9.147959536547665e-13 3.5729098814765584e-14
3.389271646505754 1.0755199679075985e-20 9.675965013231964e-13 9.314519896205055e-13 3.6144511702690404e-14
3.395632727569191 1.0940281465434075e-20 9.860947331655683e-13 9.495221132775463e-13 3.657261988802212e-14
3.421196662673239 1.181917201388688e-20 1.0733331087139614e-12 1.0349886931838444e-12 3.834441553011701e-14
3.4276182099114902 1.1703720589778054e-20 1.0648435866127912e-12 1.0261041366322102e-12 3.873944998058096e-14
3.4340518103208963 1.1093679985133667e-20 1.0112345748342562e-12 9.72121671733445e-13 3.911290310081115e-14
3.4469541582030403 1.0230958447213368e-20 9.360978796202787e-13 8.962685479017047e-13 3.982933171857395e-14
3.472904465399547 1.0078505626594332e-20 9.290913405274932e-13 8.876111282933279e-13 4.148021223416531e-14
3.4990501388274233 9.797944141679648e-21 9.100275869530332e-13 8.668588483043831e-13 4.3168738648650315e-14
3.5253949054701885 8.544140572289957e-21 7.995499318434533e-13 7.547421413160922e-13 4.4807790527360824e-14
3.5519380250092896 7.355528675650797e-21 6.935035770553011e-13 6.470494836773264e-13 4.645409337797491e-14
3.578680990867387 6.95985002227087e-21 6.611382754182379e-13 6.128799479691559e-13 4.82583274490819e-14
3.605625307711299 6.876879313150336e-21 6.581750712260456e-13 6.08017239994632e-13 5.015783123141358e-14
3.660119384959845 6.981525223134453e-21 6.782893463223678e-13 6.241440231138025e-13 5.414532320856538e-14
3.715437065384467 7.132376415355375e-21 7.034181946862228e-13 6.450740347154989e-13 5.834415997072387e-14
3.8285932144167436 7.612760608816258e-21 7.736612257736638e-13 7.063096751209983e-13 6.735155065266568e-14
3.94519561050918 8.154803874036945e-21 8.539874626170361e-13 7.768395195387963e-13 7.714794307823972e-14
4.06534921144712 8.729477764556003e-21 9.420100872791634e-13 8.542949011573217e-13 8.771518612184202e-14
4.189162171576248 9.326030090369414e-21 1.0370350107099064e-12 9.379693167434405e-13 9.90656939664659e-14
4.316745939156006 9.937425182671947e-21 1.1386750221606164e-12 1.0275264739063397e-12 1.1114854825427661e-13
4.448215356677963 1.0557282074275336e-20 1.2465432849310116e-12 1.1227572589318211e-12 1.2378602599919058e-13
4.58368876423945 1.1181779255833006e-20 1.360490358957232e-12 1.2235056642119977e-12 1.3698469474523436e-13
4.723288106065518 1.1808165158180282e-20 1.4804586743654725e-12 1.3296402912807915e-12 1.508183830846808e-13
4.867139040275056 1.2430854775078467e-20 1.605994962916984e-12 1.4410912090516413e-12 1.6490375386534238e-13
4.940699165968905 1.2742383189431981e-20 1.6711233406724882e-12 1.4990417715534068e-12 1.7208156911908122e-13
5.015371051989984 1.3049744848943557e-20 1.7372988106487615e-12 1.5579733088186892e-12 1.7932550183007261e-13
5.091171501069577 1.336131820917254e-20 1.8056620360114493e-12 1.6188676998464405e-12 1.8679433616500876e-13
5.129500256944802 1.3515079649027826e-20 1.8401918310020103e-12 1.6496468236846069e-12 1.905450073174026e-13
5.168117569889187 1.3668347822906785e-20 1.8750715302364286e-12 1.680727446782372e-12 1.9434408345405608e-13
5.20702561229733 1.3828348551477327e-20 1.911302661621996e-12 1.7128027877096012e-12 1.9849987391239453e-13
5.246226572918644 1.3987021210301368e-20 1.9477881053738465e-12 1.7451111040813203e-12 2.0267700129252596e-13
5.265937586045735 1.4065839436296973e-20 1.9661235085186995e-12 1.7613505309932255e-12 2.0477297752547407e-13
5.285722656980489 1.4144301754416243e-20 1.984519258975785e-12 1.7776456815857105e-12 2.0687357739007426e-13
5.305582063971359 1.422240041735501e-20 2.002974272697988e-12 1.7939957127724209e-12 2.0897855992556636e-13
5.3255160863122235 1.4301365687267346e-20 2.0216624546063934e-12 1.8105572846606027e-12 2.1110516994579003e-13
5.365609099470188 1.4467722999726658e-20 2.060576051409914e-12 1.8450704684196145e-12 2.1550558299029986e-13
5.406003951863644 1.463298630203951e-20 2.099803996378422e-12 1.879876801498769e-12 2.1992719487965237e-13
5.446702915881641 1.4797123762346398e-20 2.139343033015903e-12 1.914974955921193e-12 2.2436807709470995e-13
5.487708281020852 1.4962391651603866e-20 2.179523060299632e-12 1.9506769307957494e-12 2.288461295038824e-13
5.529022354014368 1.5146722792850586e-20 2.222984610454718e-12 1.98947069021106e-12 2.3351392024365844e-13
5.570647458961463 1.5331189468369753e-20 2.2669970693371686e-12 2.028793822707256e-12 2.38203246629912e-13
5.612585937458331 1.551588496998977e-20 2.3115803182804576e-12 2.0686681743673895e-12 2.429121439130679e-13
5.654840148729818 1.5704319630980275e-20 2.3572676257910096e-12 2.109604609127543e-12 2.4766301666346574e-13
5.67608639626678 1.5813729625006365e-20 2.382608789134462e-12 2.1324582078762265e-12 2.5015058125823604e-13
5.686739436050992 1.586875172280374e-20 2.395386115700179e-12 2.143989492742103e-12 2.5139662295807547e-13
5.6974124697621304 1.5923994870105458e-20 2.408236441280522e-12 2.155592311764372e-12 2.5264412951615096e-13
5.718818669136295 1.6035174563431987e-20 2.4341618494557362e-12 2.179018437205064e-12 2.5514341225067236e-13
5.740305295436557 1.615154944087448e-20 2.461039674057595e-12 2.2033719709278154e-12 2.5766770312977935e-13
5.7835210386641895 1.6422206466250366e-20 2.521118508518539e-12 2.2582344525348545e-12 2.628840559836842e-13
5.827062130521658 1.671088906639183e-20 2.5847505593945675e-12 2.316576297721002e-12 2.681742616735658e-13
5.8489554468988025 1.689560506854976e-20 2.623140155255205e-12 2.3521025096891246e-12 2.7103764556608057e-13
5.870931020387893 1.7086547108568722e-20 2.6627519970249146e-12 2.388840633128376e-12 2.7391136389653813e-13
5.892989160043636 1.728423103792939e-20 2.7036790644813257e-12 2.4268838908403654e-12 2.767951736409606e-13
5.915130176081913 1.750094286990557e-20 2.7478636993242367e-12 2.4680770939346514e-12 2.797866053895855e-13
5.95966208400165 1.8073203104561068e-20 2.859079278462246e-12 2.5724358677971826e-12 2.8664341066506317e-13
6.004529249263818 1.884692421932929e-20 3.003923594407148e-12 2.7095416122385337e-12 2.9438198216861384e-13
6.027089341400364 1.9366027569361605e-20 3.0982582016302057e-12 2.7993846398181438e-12 2.9887356181206175e-13
6.049734195844842 1.996178552710401e-20 3.2055688697770917e-12 2.9019332074634917e-12 3.036356623135995e-13
6.095279466722835 2.1637301315896383e-20 3.500790717215845e-12 3.185380506555629e-12 3.154102106602155e-13
6.141167624020661 2.412696655250059e-20 3.9329923970421766e-12 3.602214607393444e-12 3.307777896487325e-13
6.164241091010745 2.570327807577534e-20 4.205692964615868e-12 3.865228690139169e-12 3.404642744766994e-13
6.187401249150058 2.7449388108386697e-20 4.508274810953629e-12 4.157871631201216e-12 3.5040317975241376e-13
6.1990139391386085 2.829681393237854e-20 4.656178112883034e-12 4.3007191734733645e-12 3.5545893940967067e-13
6.204828454712694 2.8738989651084704e-20 4.733372770249331e-12 4.375361031818512e-12 3.580117384308189e-13
6.210648424152782 2.9060950672546856e-20 4.79088995627505e-12 4.4307125154763744e-12 3.6017744079867453e-13
6.233982942956859 3.0137376454699246e-20 4.987012832539948e-12 4.6193240641232245e-12 3.6768876841672444e-13
6.239830258556775 3.0265928795275264e-20 5.012982803658769e-12 4.644281348975793e-12 3.687014546829746e-13
6.245683058788269 3.02676887378055e-20 5.017976627399051e-12 4.648261160676918e-12 3.697154667221323e-13
6.257405133728602 3.021566712494795e-20 5.018753836114391e-12 4.6472808317941e-12 3.714730043202916e-13
6.269149208991335 2.9976196484777165e-20 4.988322993025609e-12 4.616287929032348e-12 3.7203506399326197e-13
6.280915325867298 2.941173497312953e-20 4.903577183783554e-12 4.532457279357757e-12 3.71119904425796e-13
6.304513850009849 2.803443123814132e-20 4.6915115057749684e-12 4.323556974934195e-12 3.679545308407727e-13
6.32820103803542 2.636615237716091e-20 4.428905954208039e-12 4.065537116682993e-12 3.63368837525046e-13
6.3519772230701035 2.485161132088112e-20 4.1901822982144175e-12 3.830945776352975e-12 3.5923652186144104e-13
6.375842739491607 2.356759094475863e-20 3.988615947351836e-12 3.633045939470076e-12 3.555700078817592e-13
6.399797922933955 2.2572371844722647e-20 3.83453662435922e-12 3.4809514298352734e-12 3.5358519452394637e-13
6.42384311029221 2.1738778556828415e-20 3.706802926879977e-12 3.3548667969532914e-12 3.5193612992668505e-13
6.447978639727206 2.1149554174549524e-20 3.6198805533892155e-12 3.2682841824046873e-12 3.5159637098452776e-13
6.472204850670314 2.065796494792174e-20 3.549026350237783e-12 3.197510663841783e-12 3.5151568639600043e-13
6.496522083828205 2.035373217571664e-20 3.5098972884029935e-12 3.1574033125311644e-12 3.5249397587182965e-13
6.520930681187647 2.0099474595901194e-20 3.479074443566486e-12 3.1254437557104896e-12 3.5363068785599596e-13
