Dust emission spectrum from A.P. Jones, M. Kohler, N. Ysard, M. Bocchio, and L. Verstraete (2017), A&A, 602A, 46J 
inside the DustPedia framework.

lambda    nu*dP/dnu     j_nu    j_nu(carb.) j_nu(sil)
 (um)   (erg s-1 H-1) (Jy cm2 sr-1 H-1)
0.9927057738263894 2.1265713080871305e-25 5.603636183648533e-18 5.603636182049653e-18 1.5988815255714337e-27
1.0001793341362166 2.1616724014920618e-25 5.739012725782061e-18 5.739012723856187e-18 1.9258735555740027e-27
1.0077091589558085 2.1967227978634557e-25 5.875974414569289e-18 5.875974412252543e-18 2.3167466639055386e-27
1.0114953028030835 2.2142246710042924e-25 5.945042843755176e-18 5.9450428412154155e-18 2.5397622997435338e-27
1.0152956718711033 2.2317087072771045e-25 6.0144992595755895e-18 6.014499256792246e-18 2.783343218873427e-27
1.0229392996569957 2.2665992742636856e-25 6.154517943918077e-18 6.154517940578458e-18 3.339616703988446e-27
1.0267826658714554 2.2839634592976314e-25 6.224967850187583e-18 6.224967846531087e-18 3.656496465912469e-27
1.0306404723013447 2.3013021357505403e-25 6.295790477552621e-18 6.2957904735504784e-18 4.0021421847225625e-27
1.03451277320114 2.318613631934525e-25 6.366982779573851e-18 6.366982775194814e-18 4.379037138331011e-27
1.0383996230291617 2.3358962855038683e-25 6.43854167192887e-18 6.438541667139003e-18 4.7898670649394195e-27
1.0403485208654093 2.344526279458209e-25 6.474457615452659e-18 6.474457610443754e-18 5.00890607885867e-27
1.0423010764483396 2.3531484437742266e-25 6.510464033145828e-18 6.5104640279082926e-18 5.237535622351534e-27
1.0462171883269815 2.3703684640347994e-25 6.582746705338029e-18 6.582746699612848e-18 5.7251809409378474e-27
1.0471985131304309 2.374668256005132e-25 6.600873298503375e-18 6.600873292649645e-18 5.853730136003356e-27
1.048180758391296 2.3789659118666647e-25 6.619022161434011e-18 6.619022155448967e-18 5.985044000037233e-27
1.0501480137395462 2.3875547138534436e-25 6.655386494939213e-18 6.655386488683017e-18 6.256193340866422e-27
1.0521189612883777 2.3961346675960582e-25 6.691839301203622e-18 6.691839294664526e-18 6.539095267864118e-27
1.0531058218030118 2.400414669923603e-25 6.710080323532083e-18 6.7100803168469694e-18 6.685113613689619e-27
1.0540936079674168 2.4046707826320905e-25 6.7282828343350434e-18 6.728282827500758e-18 6.834285406662937e-27
1.058054026499678 2.4216709634915083e-25 6.80130751952233e-18 6.801307512058833e-18 7.463494278541429e-27
1.0590464539527713 2.4259148170286505e-25 6.819617091488411e-18 6.819617083859151e-18 7.629260383969468e-27
1.06003981227728 2.4301561443804363e-25 6.8379479193540564e-18 6.8379479115555054e-18 7.798549933410775e-27
1.0620293250338977 2.438631121867565e-25 6.8746731330567076e-18 6.874673124908723e-18 8.147985772689811e-27
1.0660195594769086 2.455549679964399e-25 6.948376317412916e-18 6.948376308520551e-18 8.892366927423179e-27
1.070024785945596 2.472425071988827e-25 7.022413683972983e-18 7.022413674271376e-18 9.70160634137462e-27
1.0740450607676866 2.4892557444084023e-25 7.096781813764876e-18 7.096781803183814e-18 1.0581060657926004e-26
1.07808044048254 2.506040156202401e-25 7.171477258199927e-18 7.171477246663426e-18 1.1536502839086591e-26
1.0861967418109137 2.539434409812747e-25 7.321750555815127e-18 7.321750542114419e-18 1.3700709091189313e-26
1.0902777775684922 2.5559737240872266e-25 7.39712534893763e-18 7.397125334014245e-18 1.4923387084779155e-26
1.0943741465085532 2.5724595644617987e-25 7.472807840750853e-18 7.472807824500908e-18 1.624994339227772e-26
1.1026131145906286 2.605264972177459e-25 7.625081451264626e-18 7.625081432015907e-18 1.924871873736168e-26
1.1109141095355224 2.637839072590272e-25 7.778542208342888e-18 7.778542185571227e-18 2.2771660105105602e-26
1.1192775983109025 2.6701402658576054e-25 7.933070626729937e-18 7.933070599824978e-18 2.690496003051182e-26
1.1277040513999907 2.7020184122125555e-25 8.088218551912937e-18 8.088218520164899e-18 3.1748037153406395e-26
1.1361939428280308 2.7336276725601135e-25 8.24444195894278e-18 8.244441921527379e-18 3.741539811256972e-26
1.1447477501889525 2.7649575276806045e-25 8.40171017855077e-18 8.401710134512003e-18 4.403876355840314e-26
1.1533659546722406 2.7960147934364625e-25 8.560044563116362e-18 8.560044511346835e-18 5.176952533341464e-26
1.1707974979042381 2.8574120741115692e-25 8.88022754556137e-18 8.880227474287459e-18 7.127391046984718e-26
1.1884924949847024 2.9175870141687787e-25 9.204277293062302e-18 9.204277195421049e-18 9.764125885240421e-26
1.2064549276569216 2.9770108446736563e-25 9.533688357173025e-18 9.533688224062465e-18 1.3311056166344446e-25
1.2246888378427687 3.0350342581091685e-25 9.866401628850858e-18 9.86640144826547e-18 1.8058538521858648e-25
1.2431983285522175 3.0915216780177e-25 1.0201925476816096e-17 1.0201925232997889e-17 2.4381820434011453e-25
1.2619875648066055 3.1464522899166996e-25 1.0540122525964679e-17 1.0540122198330882e-17 3.2763379596878394e-25
1.3004222497298317 3.2507306345249993e-25 1.122108387342092e-17 1.1221083290057856e-17 5.833630629355597e-25
1.3400274889804893 3.3474638301259355e-25 1.190690897559498e-17 1.1906907955750447e-17 1.0198445369672293e-24
1.3808389325824078 3.436296224798824e-25 1.2595141515124375e-17 1.2595139763769179e-17 1.751355198206774e-24
1.4228933163050095 3.5176640378630147e-25 1.3286057611049377e-17 1.3286054655266368e-17 2.9557830097866855e-24
1.466228494730424 3.593530138468067e-25 1.3985963160963207e-17 1.398595825589691e-17 4.905066292241584e-24
1.5108834753276823 3.6624241702562525e-25 1.4688215842345245e-17 1.4688207835120254e-17 8.00722499015072e-24
1.5568984535646726 3.7231581530768447e-25 1.5386548317912993e-17 1.5386535446222934e-17 1.287169005908342e-23
1.6043148490894465 3.775849223725085e-25 1.607954221119433e-17 1.6079521798453718e-17 2.0412740608623028e-23
1.6531753430134553 3.820664615812855e-25 1.6765915327455424e-17 1.6765883428098622e-17 3.189935680441849e-23
1.7035239163302658 3.858143497450418e-25 1.7446007092306453e-17 1.744595795828301e-17 4.913402344768605e-23
1.755405889504358 3.8913626882253517e-25 1.813212459156534e-17 1.8132049960325617e-17 7.46312397249168e-23
1.8088679632656115 3.9195762016750546e-25 1.8819817698338172e-17 1.881970587000398e-17 1.1182833418906956e-22
1.8639582606462262 3.9422841471038165e-25 1.9505340662092744e-17 1.95051752948767e-17 1.653672160449723e-22
1.9207263702978936 3.959873636914347e-25 2.0189067472640815e-17 2.018882604973515e-17 2.4142290566362e-22
1.979223391128241 3.9732281202991287e-25 2.0874099463149603e-17 2.087375136002149e-17 3.481031281130323e-22
2.039501978296691 3.9834038433525537e-25 2.1564922515046265e-17 2.156442661470618e-17 4.959003400968273e-22
2.1016163906111602 3.993326468714023e-25 2.2277050876508266e-17 2.2276352613528873e-17 6.982629793984047e-22
2.1656225393682647 4.0047057292788667e-25 2.302092685658972e-17 2.301995470662812e-17 9.721499615881727e-22
2.231578038680979 4.0176921061382992e-25 2.3798970111679045e-17 2.3797631438920848e-17 1.3386727581950303e-21
2.299542257339062 4.0333279426317755e-25 2.4619224178065415e-17 2.4617400376160656e-17 1.8238019047587603e-21
2.369576372248914 4.05388037371865e-25 2.5498290968990718e-17 2.5495831813344853e-17 2.459155645863991e-21
2.4417434235010123 4.0820248067046442e-25 2.6457274262721363e-17 2.6453991549078012e-17 3.2827136433528662e-21
2.5161083711144245 4.122317841608976e-25 2.753215777715542e-17 2.7527818056379522e-17 4.339720775905686e-21
2.5927381535095444 4.182190251287036e-25 2.878272292481159e-17 2.877703947458023e-17 5.683450231363754e-21
2.6717017477616296 4.27050868006136e-25 3.028565819275105e-17 3.0278282572235694e-17 7.375620515344536e-21
2.753070231689431 4.400597359026758e-25 3.2158690601405765e-17 3.214920355676285e-17 9.487044642919217e-21
2.836916847834745 4.6025607745162175e-25 3.465896355519419e-17 3.464686501664682e-17 1.2098538547379906e-20
2.9233170693905177 4.942601808169695e-25 3.835314472109535e-17 3.833784598613714e-17 1.5298734958210846e-20
2.967498994190263 5.229665128064421e-25 4.119399329689959e-17 4.1176871029171696e-17 1.712226772789216e-20
3.0123486681368425 5.564641210677792e-25 4.4495064348851896e-17 4.4475926668030173e-17 1.9137680821729403e-20
3.0578761833420214 6.310157243707326e-25 5.121881319124012e-17 5.1197445413896825e-17 2.136777734330592e-20
3.1040917844459814 7.270040369134602e-25 5.990192924762175e-17 5.987811616562486e-17 2.3813081996893403e-20
3.127460860933648 8.283321412513338e-25 6.876474387771273e-17 6.873961416523138e-17 2.5129712481374916e-20
3.1510058709225794 9.632742378456419e-25 8.056911457081624e-17 8.054260703790025e-17 2.6507532915984603e-20
3.162844764501044 1.0887928363498874e-24 9.140975915719448e-17 9.138253650369948e-17 2.7222653494981736e-20
3.1747281389236908 1.2347421952913707e-24 1.0405243888359706e-16 1.0402448509742768e-16 2.795378616935897e-20
3.1986289994194426 1.6417482713796147e-24 1.393926488773106e-16 1.3936318005570985e-16 2.946882160075543e-20
3.2227097969389145 2.600842538860369e-24 2.224870266812587e-16 2.2245594671669964e-16 3.107996455900961e-20
3.2348180950136065 3.5102529165162685e-24 3.0141003382711278e-16 3.013780925494867e-16 3.194127762597217e-20
3.240889293275058 4.190124834476555e-24 3.604629154674865e-16 3.604305198162573e-16 3.239565122918532e-20
3.2469718861334385 4.976624462057981e-24 4.289264531877383e-16 4.288935873438235e-16 3.286584391480209e-20
3.2714166318528037 9.171775039290563e-24 7.96450307686544e-16 7.964154940247974e-16 3.481366174655282e-20
3.2744851364798273 9.434040354111059e-24 8.199930776110038e-16 8.199580331050156e-16 3.504450598829069e-20
3.2775565192852394 9.703837128219298e-24 8.442345493629826e-16 8.441992727340353e-16 3.5276628947664436e-20
3.283707930232385 9.444463206655402e-24 8.232111306230046e-16 8.231754362880394e-16 3.569433496515647e-20
3.2898708863219004 8.62178165860364e-24 7.529138870249845e-16 7.528778101532153e-16 3.60768717693223e-20
3.29141343181113 8.427773363982634e-24 7.3631681495382e-16 7.362806419589759e-16 3.617299484383471e-20
3.292184975758714 8.332444642653086e-24 7.281587938016404e-16 7.281225726717675e-16 3.6221129873039784e-20
3.295272960557952 7.730713452006242e-24 6.762081545849081e-16 6.761717457678616e-16 3.640881704646412e-20
3.3076538914384823 5.6461349842237325e-24 4.957249173963726e-16 4.956877534585537e-16 3.7163937818936547e-20
3.310756385682612 5.221871349550491e-24 4.589050389089998e-16 4.588676843692496e-16 3.7354539750346113e-20
3.313861789986515 4.830422639432245e-24 4.249021764988577e-16 4.24864630625479e-16 3.7545873378786194e-20
3.3200813396944477 4.281483733759442e-24 3.773222844755898e-16 3.772843281489902e-16 3.7956326599638935e-20
3.345076488085796 3.3024228985548185e-24 2.932298463100147e-16 2.9319006341283693e-16 3.9782897177865096e-20
3.3482140837626964 3.3391879214513276e-24 2.967724026292926e-16 2.9673237237523673e-16 4.003025405589862e-20
3.3513546224236106 3.376359119369488e-24 3.0035747953713027e-16 3.0031720066974846e-16 4.0278867381788393e-20
3.3576445397418455 3.64780325666211e-24 3.2511391436056932e-16 3.2507311610433447e-16 4.0798256234894626e-20
3.3702598118196083 4.648855320423832e-24 4.1589035173242387e-16 4.158484636792049e-16 4.188805321891717e-20
3.382922481734668 4.876986629500666e-24 4.3793841701913895e-16 4.3789546493099045e-16 4.295208814849573e-20
3.389271646505754 4.995172060791834e-24 4.493929591035547e-16 4.493494667241704e-16 4.349237938420744e-20
3.395632727569191 5.1225217628978104e-24 4.61714970211611e-16 4.616709209709996e-16 4.4049240611347265e-20
3.421196662673239 5.733961307327783e-24 5.207175687102749e-16 5.206712087638558e-16 4.6359946419203064e-20
3.4276182099114902 5.610905041051398e-24 5.104988795849462e-16 5.104519987503107e-16 4.688083463540494e-20
3.4340518103208963 5.071383111638258e-24 4.622774364855944e-16 4.62230060453212e-16 4.737603238227511e-20
3.4469541582030403 4.303044619527748e-24 3.9371393843833957e-16 3.9366560675073626e-16 4.833168760337541e-20
3.472904465399547 4.0880168874350016e-24 3.768555806551115e-16 3.768050544677247e-16 5.052618738669787e-20
3.4990501388274233 3.758977502713437e-24 3.4913173383519934e-16 3.490789496158133e-16 5.2784219385888715e-20
3.5253949054701885 2.5870870348483637e-24 2.420963518665167e-16 2.4204135459683236e-16 5.499726968437762e-20
3.5519380250092896 1.4856689713438443e-24 1.4007378549929535e-16 1.4001654794068675e-16 5.72375586086159e-20
3.578680990867387 1.0492211524684005e-24 9.966885221026062e-17 9.960915600098904e-17 5.969620927159929e-20
3.605625307711299 8.729650214604349e-25 8.355007976930126e-17 8.348778380559424e-17 6.229596370704677e-20
3.660119384959845 7.450155695269844e-25 7.238190903900611e-17 7.231410590784943e-17 6.780313115669597e-20
3.715437065384467 6.5477022187047745e-25 6.457557209275254e-17 6.45018963771484e-17 7.36757156041328e-20
3.8285932144167436 6.108246615197884e-25 6.207621395803553e-17 6.198967866726204e-17 8.653529077349413e-20
3.94519561050918 6.048031099922063e-25 6.333619805738524e-17 6.323527200343089e-17 1.0092605395434306e-19
4.06534921144712 6.147664706639065e-25 6.634030491924445e-17 6.62233719797067e-17 1.1693293953776596e-19
4.189162171576248 6.343877535886329e-25 7.054258933995803e-17 7.040789657113438e-17 1.3469276882364563e-19
4.316745939156006 6.61424285679218e-25 7.578897946991628e-17 7.563471119248917e-17 1.5426827742712088e-19
4.448215356677963 6.9526495979065765e-25 8.209289671123652e-17 8.191735365652685e-17 1.7554305470967062e-19
4.58368876423945 7.362444297605477e-25 8.95790755306384e-17 8.938039811686088e-17 1.986774137774956e-19
4.723288106065518 7.854088240533536e-25 9.847129430497924e-17 9.824734063064979e-17 2.2395367432944704e-19
4.867139040275056 8.446149083889068e-25 1.0911938985857967e-16 1.0886841267777875e-16 2.5097718080093095e-19
4.940699165968905 8.800332963594117e-25 1.1541358945592333e-16 1.151483245944906e-16 2.6526486143271747e-19
5.015371051989984 9.17111174099695e-25 1.2209404631578483e-16 1.218139856863354e-16 2.8006062944943153e-19
5.091171501069577 9.615042485816037e-25 1.2993865514973287e-16 1.2964300361466608e-16 2.9565153506678246e-19
5.129500256944802 9.844595403928995e-25 1.3404245118994321e-16 1.3373880684340733e-16 3.0364434653587657e-19
5.168117569889187 1.0084094588702602e-24 1.3833711957343438e-16 1.3802529206661227e-16 3.118275068221221e-19
5.20702561229733 1.037038458500622e-24 1.4333558042437811e-16 1.4301492296800347e-16 3.206574563746326e-19
5.246226572918644 1.0664909070964423e-24 1.4851613307069945e-16 1.4818648131643347e-16 3.296517542659669e-19
5.265937586045735 1.081534583156656e-24 1.5117694033482337e-16 1.5084272951065948e-16 3.342108241638924e-19
5.285722656980489 1.0967946443795089e-24 1.5388600531185883e-16 1.5354719398467228e-16 3.3881132718655877e-19
5.305582063971359 1.112274738977726e-24 1.5664428092079958e-16 1.5630082754448426e-16 3.4345337631531114e-19
5.3255160863122235 1.1287763586198978e-24 1.5956551519417911e-16 1.592173512771468e-16 3.4816391703230483e-19
5.365609099470188 1.1687966210656947e-24 1.6646671534852456e-16 1.6610879477267873e-16 3.579205758458283e-19
5.406003951863644 1.2103782837035308e-24 1.7368684045689928e-16 1.7331898003328777e-16 3.6786042361151957e-19
5.446702915881641 1.253594119090533e-24 1.8124250955651754e-16 1.8086452479303965e-16 3.7798476347796413e-19
5.487708281020852 1.300084793983774e-24 1.8937913502142506e-16 1.8899080778727104e-16 3.883272341540006e-19
5.529022354014368 1.3626381435510518e-24 1.9998541362111377e-16 1.9958627036252612e-16 3.9914325858759387e-19
5.570647458961463 1.4287830890134412e-24 2.1127174001694748e-16 2.1086157433898175e-16 4.101656779657258e-19
5.612585937458331 1.4987677942752949e-24 2.2328872259754e-16 2.2286732629530285e-16 4.2139630223720673e-19
5.654840148729818 1.5753168610214667e-24 2.364600010765842e-16 2.3602712252867414e-16 4.3287854791009406e-19
5.67608639626678 1.6262930164343651e-24 2.4502885318952426e-16 2.445899722605931e-16 4.388809289311322e-19
5.686739436050992 1.6525400736628187e-24 2.494507203362226e-16 2.490088162074756e-16 4.419041287469932e-19
5.6974124697621304 1.679308832209878e-24 2.5396722109502184e-16 2.5352227904221987e-16 4.449420528019665e-19
5.718818669136295 1.7344603879873185e-24 2.6329350448476215e-16 2.6284244225655777e-16 4.510622282044001e-19
5.740305295436557 1.794948669696102e-24 2.7349945001808055e-16 2.730421717976686e-16 4.572782204119634e-19
5.7835210386641895 1.949839894013628e-24 2.9933720876960744e-16 2.9886703149300585e-16 4.701772766015124e-19
5.827062130521658 2.1273703981141496e-24 3.2905022615605584e-16 3.2856680063999404e-16 4.834255160617772e-19
5.8489554468988025 2.250424046988896e-24 3.493913156739762e-16 3.489007790174786e-16 4.905366564974858e-19
5.870931020387893 2.3822205023256238e-24 3.71243081449743e-16 3.7074535507429236e-16 4.977263754507842e-19
5.892989160043636 2.5234560888718594e-24 3.947306294765952e-16 3.9422563421402607e-16 5.049952625690908e-19
5.915130176081913 2.6835634104704165e-24 4.2135252570573027e-16 4.2084000344743166e-16 5.125222582985443e-19
5.95966208400165 3.128027533637685e-24 4.948363968546277e-16 4.943070149270909e-16 5.293819275369005e-19
6.004529249263818 3.764947762400073e-24 6.000775131034328e-16 5.99529293386354e-16 5.482197170789362e-19
6.027089341400364 4.206038055561649e-24 6.728995843540574e-16 6.723406263947807e-16 5.58957959276816e-19
6.049734195844842 4.726369919984018e-24 7.589854255261917e-16 7.584151143498569e-16 5.703111763349149e-19
6.095279466722835 6.225491448598266e-24 1.007248656159713e-15 1.0066509613992591e-15 5.976947604539683e-19
6.141167624020661 8.527328715569183e-24 1.3900594976344862e-15 1.3894269017043322e-15 6.325959301539526e-19
6.164241091010745 9.996690276601124e-24 1.635706147745008e-15 1.6350519655245318e-15 6.541822204765684e-19
6.187401249150058 1.1668955055916685e-23 1.9165037829264424e-15 1.9158273299924477e-15 6.764529339941096e-19
6.1990139391386085 1.2485834412109246e-23 2.054516421872593e-15 2.053828614639429e-15 6.87807233164276e-19
6.204828454712694 1.2915982222498747e-23 2.127289765410821e-15 2.1265962121634567e-15 6.935532473641417e-19
6.210648424152782 1.3230583152624715e-23 2.181149152888898e-15 2.18045062472267e-15 6.985281662278089e-19
6.233982942956859 1.4300584221931218e-23 2.366403629552465e-15 2.3656874108446267e-15 7.162187078379561e-19
6.239830258556775 1.443823675909292e-23 2.3914228133578886e-15 2.390703884069013e-15 7.189292888757606e-19
6.245683058788269 1.4451822131645174e-23 2.39591817889104e-15 2.3951965306335845e-15 7.216482574549913e-19
6.257405133728602 1.4426248811037069e-23 2.3961672354191874e-15 2.3954406764585987e-15 7.265589605881172e-19
6.269149208991335 1.4220875230469774e-23 2.3664883211292467e-15 2.3657592319954987e-15 7.290891337468771e-19
6.280915325867298 1.3700269734681196e-23 2.2841335318721863e-15 2.28340486847976e-15 7.286633924271551e-19
6.304513850009849 1.2414419710886167e-23 2.0775307483999257e-15 2.0768056224569147e-15 7.251259430111734e-19
6.32820103803542 1.0819050847856456e-23 1.817351202159388e-15 1.816632474001237e-15 7.1872815815148975e-19
6.3519772230701035 9.356417225072215e-24 1.5775674794279709e-15 1.5768542438716218e-15 7.132355563490796e-19
6.375842739491607 8.126112375212494e-24 1.3752759662927697e-15 1.3745673025719296e-15 7.086637208400486e-19
6.399797922933955 7.142340019021103e-24 1.2133224002760738e-15 1.2126148611598116e-15 7.075391162622064e-19
6.42384311029221 6.324991306889347e-24 1.0785102864716064e-15 1.077803181695379e-15 7.071047762273819e-19
6.447978639727206 5.73178906646011e-24 9.810321109640982e-16 9.803227173873245e-16 7.09393576773584e-19
6.472204850670314 5.23857069041647e-24 8.999833945280167e-16 8.992711507959752e-16 7.122437320415655e-19
6.496522083828205 4.92103749994455e-24 8.486078144327688e-16 8.478904828667404e-16 7.173315660285362e-19
