Dust emission spectrum from A.P. Jones, M. Kohler, N. Ysard, M. Bocchio, and L. Verstraete (2017), A&A, 602A, 46J 
inside the DustPedia framework.

lambda    nu*dP/dnu     j_nu    j_nu(carb.) j_nu(sil)
 (um)   (erg s-1 H-1) (Jy cm2 sr-1 H-1)
0.9927057738263894 1.4472510973017352e-21 3.813588843611336e-14 3.813586159233536e-14 2.6843778000307465e-20
1.0001793341362166 1.4715553020073536e-21 3.906824456417654e-14 3.9068212265636595e-14 3.2298539935180275e-20
1.0077091589558085 1.4959646765490995e-21 4.001529083711143e-14 4.001525202739881e-14 3.880971262129556e-20
1.0114953028030835 1.5082079019427835e-21 4.0494357739556465e-14 4.049431521881822e-14 4.252073825051734e-20
1.0152956718711033 1.5204763639801381e-21 4.09771397832577e-14 4.097709321226671e-14 4.6570990983725703e-20
1.0229392996569957 1.545075737432862e-21 4.1953584203066106e-14 4.195352839288236e-14 5.581018372245173e-20
1.0267826658714554 1.557378890796289e-21 4.2446535150562394e-14 4.244647408311645e-14 6.106744595046828e-20
1.0306404723013447 1.5697054413994038e-21 4.2943238165039283e-14 4.2943171367493296e-14 6.679754598290663e-20
1.03451277320114 1.5820551202503327e-21 4.344370950051825e-14 4.344363645967962e-14 7.304083863657667e-20
1.0383996230291617 1.5944276738622172e-21 4.394796586109601e-14 4.394788602017249e-14 7.984092350461881e-20
1.0403485208654093 1.6006224538450509e-21 4.42015187740033e-14 4.4201435309668545e-14 8.346433474559598e-20
1.0423010764483396 1.6068228647272317e-21 4.4456024421749933e-14 4.4455937176861365e-14 8.724488856983191e-20
1.0462171883269815 1.6192404717968462e-21 4.496790284969888e-14 4.49678075461282e-14 9.530357069536807e-20
1.0471985131304309 1.6223483517985844e-21 4.5096471429965875e-14 4.509637400308837e-14 9.742687750550064e-20
1.048180758391296 1.6254576169509353e-21 4.522528017489715e-14 4.5225180579486755e-14 9.959541039385552e-20
1.0501480137395462 1.631680290968495e-21 4.548361932633305e-14 4.548351525449901e-14 1.0407183405368183e-19
1.0521189612883777 1.6379084710654357e-21 4.574292266071319e-14 4.574281392033541e-14 1.087403777664092e-19
1.0531058218030118 1.6410205295810973e-21 4.587282232533921e-14 4.5872711176047976e-14 1.1114929122936217e-19
1.0540936079674168 1.6441205591247233e-21 4.6002588859286236e-14 4.6002475249542594e-14 1.136097436425555e-19
1.058054026499678 1.6565337748975527e-21 4.652405627934492e-14 4.6523932296773334e-14 1.2398257159072357e-19
1.0590464539527713 1.6596403417992133e-21 4.6655024987729887e-14 4.665489827381746e-14 1.2671391243723425e-19
1.06003981227728 1.6627482095668253e-21 4.6786235058635953e-14 4.678610555590579e-14 1.29502730151633e-19
1.0620293250338977 1.6689678396644053e-21 4.704938054956752e-14 4.7049245292155775e-14 1.3525741175009657e-19
1.0660195594769086 1.6814226261237948e-21 4.757858189653975e-14 4.7578434388038106e-14 1.4750850164659181e-19
1.070024785945596 1.69389802659619e-21 4.811168118294213e-14 4.81115203671242e-14 1.6081581792306996e-19
1.0740450607676866 1.706393953551865e-21 4.864869993325361e-14 4.8648524667764515e-14 1.7526548909838247e-19
1.07808044048254 1.7189103401466304e-21 4.918966036013771e-14 4.918946940990213e-14 1.9095023558509986e-19
1.0861967418109137 1.7439853463872875e-21 5.0282951313501844e-14 5.028272488183755e-14 2.264316642706387e-19
1.0902777775684922 1.7565007790907806e-21 5.0834076719944036e-14 5.083383026875921e-14 2.4645118480902014e-19
1.0943741465085532 1.769035882497021e-21 5.138920508575268e-14 5.138893693331107e-14 2.681524416102611e-19
1.1026131145906286 1.7941653197889585e-21 5.251157500878259e-14 5.2511257865302015e-14 3.171434805733587e-19
1.1109141095355224 1.8193743406610844e-21 5.365027855058411e-14 5.3649903956025355e-14 3.745945587533041e-19
1.1192775983109025 1.844644524406836e-21 5.4804968414758476e-14 5.4804526538037617e-14 4.418767208697305e-19
1.1277040513999907 1.8698877186881574e-21 5.597319569670634e-14 5.597267512903151e-14 5.205676748231796e-19
1.1361939428280308 1.895212178640753e-21 5.71583576049038e-14 5.715774512443481e-14 6.124804689809732e-19
1.1447477501889525 1.9206203637486476e-21 5.836073609700275e-14 5.83600164012763e-14 7.196957264187924e-19
1.1533659546722406 1.9461239893721083e-21 5.958090105059954e-14 5.95800564514981e-14 8.44599101434998e-19
1.1707974979042381 1.9975036633425345e-21 6.207815531503041e-14 6.20769965232686e-14 1.158791761812549e-18
1.1884924949847024 2.0493096751574543e-21 6.465073506943392e-14 6.464915319167942e-14 1.5818777545009086e-18
1.2064549276569216 2.101912155310236e-21 6.731240324076936e-14 6.73102544957897e-14 2.1487449796775668e-18
1.2246888378427687 2.155015721485693e-21 7.005604819074451e-14 7.005314378160771e-14 2.904409136794906e-18
1.2431983285522175 2.2086183265797967e-21 7.288371850895477e-14 7.287981176159933e-14 3.906747355444096e-18
1.2619875648066055 2.262844782597858e-21 7.58017572434024e-14 7.57965274486286e-14 5.229794773790976e-18
1.3004222497298317 2.3730847258106685e-21 8.191568524393159e-14 8.190644570893177e-14 9.239534999836389e-18
1.3400274889804893 2.4866237363607848e-21 8.844905871406494e-14 8.843303505051575e-14 1.6023663549210336e-17
1.3808389325824078 2.60462749431457e-21 9.546805554284366e-14 9.544076420780483e-14 2.7291335038785285e-17
1.4228933163050095 2.729038870083039e-21 1.030745610167571e-13 1.030288885005774e-13 4.567251617972366e-17
1.466228494730424 2.86315034044795e-21 1.114333639702689e-13 1.1135822415668958e-13 7.513981357928447e-17
1.5108834753276823 3.0085515931895947e-21 1.2065848497965903e-13 1.205369049901894e-13 1.2157998946961896e-16
1.5568984535646726 3.167494226870838e-21 1.3090178006051705e-13 1.3070809729156442e-13 1.9368276895259037e-16
1.6043148490894465 3.343719864542759e-21 1.423930923048926e-13 1.420887429957327e-13 3.0434930915988747e-16
1.6531753430134553 3.541790341321397e-21 1.5542153771997722e-13 1.5495035725069234e-13 4.711804692848822e-16
1.7035239163302658 3.767347875920901e-21 1.7035441477470947e-13 1.696355673605648e-13 7.188474141446883e-16
1.755405889504358 4.028844829112303e-21 1.877273393780292e-13 1.86646062315586e-13 1.0812770624431859e-15
1.8088679632656115 4.33339858669359e-21 2.080678298356775e-13 2.0646369570441733e-13 1.6041341312601857e-15
1.8639582606462262 4.68946913615857e-21 2.320220704850525e-13 2.296739567182292e-13 2.3481137668233154e-15
1.9207263702978936 5.107635631118369e-21 2.6040831056080383e-13 2.5701569883785667e-13 3.392611722947175e-15
1.979223391128241 5.6004614124711554e-21 2.942307489625159e-13 2.8939067938616097e-13 4.840069576355052e-15
2.039501978296691 6.182175373870426e-21 3.346839490914844e-13 3.278633258136536e-13 6.8206232778307715e-15
2.1016163906111602 6.870314501644062e-21 3.832652974652092e-13 3.7376737783708246e-13 9.497919628126704e-15
2.1656225393682647 7.683304136126745e-21 4.416723586992683e-13 4.2859826125198814e-13 1.3074097447280128e-14
2.231578038680979 8.639690126543668e-21 5.117757201494809e-13 4.93980380790873e-13 1.779533935860786e-14
2.299542257339062 9.760473297288617e-21 5.957742182332324e-13 5.718166803699237e-13 2.3957537863308487e-14
2.369576372248914 1.1068690506979064e-20 6.962037977794687e-13 6.64291598203325e-13 3.191219957614394e-14
2.4417434235010123 1.2588609807233434e-20 8.159193489204522e-13 7.738488789560878e-13 4.207046996436439e-14
2.5161083711144245 1.4346675265925595e-20 9.581864916192556e-13 9.032778474521074e-13 5.49086441671482e-14
2.5927381535095444 1.6370909822972033e-20 1.1266808374312304e-12 1.055710120189742e-12 7.097071724148854e-14
2.6717017477616296 1.868844789669041e-20 1.3253501808690168e-12 1.2344843262226942e-12 9.086585464632288e-14
2.753070231689431 2.132636980155322e-20 1.5584887053856524e-12 1.443221145391743e-12 1.1526755999390924e-13
2.836916847834745 2.4318042097732486e-20 1.8312373830361427e-12 1.686322044059619e-12 1.4491533897652346e-13
2.9233170693905177 2.7704815074541155e-20 2.149812635662314e-12 1.9692417919631637e-12 1.8057084369915002e-13
2.967498994190263 2.954145187368101e-20 2.326975706216015e-12 2.1264802208745956e-12 2.0049548534141903e-13
3.0123486681368425 3.149221162105308e-20 2.5181281766695276e-12 2.2957963905030767e-12 2.223317861664514e-13
3.0578761833420214 3.3719202666454294e-20 2.736948503229395e-12 2.4906441046043966e-12 2.463043986249977e-13
3.1040917844459814 3.610949510252592e-20 2.9752632873706184e-12 2.7029464783076904e-12 2.7231680906292756e-13
3.127460860933648 3.754827050769919e-20 3.1171037267882314e-12 2.8308888621749697e-12 2.862148646132622e-13
3.1510058709225794 3.913114520703096e-20 3.2729638119707837e-12 2.972283734919544e-12 3.006800770512401e-13
3.162844764501044 4.0163083036078534e-20 3.3718974122259543e-12 3.063739812789058e-12 3.0815759943689574e-13
3.1747281389236908 4.126671135956661e-20 3.4775696319789926e-12 3.1617882643676957e-12 3.157813676112964e-13
3.1986289994194426 4.389907805688653e-20 3.727251540505088e-12 3.395737239090945e-12 3.3151430141414364e-13
3.2227097969389145 4.862067462029818e-20 4.159217318956591e-12 3.811053690990718e-12 3.4816362796587363e-13
3.2348180950136065 5.2581892129097475e-20 4.514976630531179e-12 4.157933417458434e-12 3.5704321307274624e-13
3.240889293275058 5.540739670441226e-20 4.7665195056249565e-12 4.404792503940054e-12 3.6172700168490244e-13
3.2469718861334385 5.863638618832059e-20 5.053766332431334e-12 4.687193008670712e-12 3.6657332376062366e-13
3.2714166318528037 7.515147832341106e-20 6.525936122219709e-12 6.139353201375908e-12 3.865829208438018e-13
3.2744851364798273 7.625316032641204e-20 6.627813881077219e-12 6.238877926401155e-12 3.8893595467606234e-13
3.2775565192852394 7.738041370704755e-20 6.732101727626414e-12 6.340801438502054e-12 3.9130028912436e-13
3.283707930232385 7.671619397544081e-20 6.686841104438076e-12 6.291322861594561e-12 3.9551824284351386e-13
3.2898708863219004 7.398641564455474e-20 6.4610079442686495e-12 6.061660537080257e-12 3.9934740718839135e-13
3.29141343181113 7.334460956850226e-20 6.407964118056262e-12 6.007655425685136e-12 4.003086923711268e-13
3.292184975758714 7.302954983119399e-20 6.3819336578307215e-12 5.981143723252648e-12 4.007899345780748e-13
3.295272960557952 7.09981055398884e-20 6.210228619157169e-12 5.807568521494447e-12 4.0266009766272235e-13
3.3076538914384823 6.396492340973751e-20 5.616055312555902e-12 5.205888409345255e-12 4.1016690321064736e-13
3.310756385682612 6.253908734594474e-20 5.4960186474710135e-12 5.083960550142598e-12 4.1205809732841597e-13
3.313861789986515 6.122632167745308e-20 5.385697956820349e-12 4.971742863078648e-12 4.1395509374170015e-13
3.3200813396944477 5.948928810017461e-20 5.242723196819127e-12 4.824683452930136e-12 4.180397438889925e-13
3.345076488085796 5.719926539130608e-20 5.078856438125562e-12 4.6426019561618234e-12 4.362544819637393e-13
3.3482140837626964 5.750817117541578e-20 5.111074468407554e-12 4.672351997943087e-12 4.387224704644675e-13
3.3513546224236106 5.781885473576792e-20 5.143506618869903e-12 4.702305546596423e-12 4.4120107227348e-13
3.3576445397418455 5.917875822787311e-20 5.274362782401487e-12 4.8279778453919426e-12 4.4638493700954186e-13
3.3702598118196083 6.356190938844057e-20 5.686299751297265e-12 5.229042255881939e-12 4.572574954153258e-13
3.382922481734668 6.512055643219599e-20 5.8476259144965776e-12 5.379816082322763e-12 4.678098321738145e-13
3.389271646505754 6.591604369058056e-20 5.9301672827288925e-12 5.457011878139099e-12 4.731554045897924e-13
3.395632727569191 6.677000791514543e-20 6.018268665808577e-12 5.539604313756611e-12 4.786643520519659e-13
3.421196662673239 7.067086320589287e-20 6.417824972100966e-12 5.9163729299993155e-12 5.014520421016529e-13
3.4276182099114902 7.053490289322753e-20 6.417501033287544e-12 5.910980618038379e-12 5.065204152491653e-13
3.4340518103208963 6.880099551573735e-20 6.271493818260876e-12 5.760187911917076e-12 5.113059063437976e-13
3.4469541582030403 6.646863118512784e-20 6.0816535454317905e-12 5.561179325722693e-12 5.204742197090982e-13
3.472904465399547 6.693595132837229e-20 6.170519227082593e-12 5.628899494526175e-12 5.416197325564209e-13
3.4990501388274233 6.700567694833746e-20 6.223449901705282e-12 5.660229225874244e-12 5.632206758310359e-13
3.5253949054701885 6.395217198631437e-20 5.984563844692699e-12 5.400418435623829e-12 5.841454090688679e-13
3.5519380250092896 6.109814858620916e-20 5.760535573228992e-12 5.1554075762909906e-12 6.051279969380008e-13
3.578680990867387 6.085599206150428e-20 5.780904115988585e-12 5.1527847427254995e-12 6.281193732630841e-13
3.605625307711299 6.1648117354505e-20 5.900242273143107e-12 5.247937998420399e-12 6.523042747227083e-13
3.660119384959845 6.414498892966312e-20 6.231999630508076e-12 5.52901950828534e-12 7.029801222227339e-13
3.715437065384467 6.683550861716942e-20 6.591535566071542e-12 5.835329420908759e-12 7.562061451627819e-13
3.8285932144167436 7.292171124213495e-20 7.410807117692325e-12 6.540892736369189e-12 8.699143813231359e-13
3.94519561050918 7.93516728084022e-20 8.309866768447269e-12 7.316988932572127e-12 9.92877835875141e-13
4.06534921144712 8.599735558984179e-20 9.280094254193275e-12 8.155387480983231e-12 1.124706773210042e-12
4.189162171576248 9.278819678110373e-20 1.0317853117588774e-11 9.052453917652156e-12 1.2653991999366207e-12
4.316745939156006 9.965808043634062e-20 1.1419272584533105e-11 1.000512997792382e-11 1.4141426066092809e-12
4.448215356677963 1.0653188846128508e-19 1.2578674061955452e-11 1.1010132673763516e-11 1.5685413881919349e-12
4.58368876423945 1.1335837976879365e-19 1.379234728694948e-11 1.2063825436126292e-11 1.7285218508231853e-12
4.723288106065518 1.2009368577328733e-19 1.5056847228835998e-11 1.3162005945808455e-11 1.8948412830275402e-12
4.867139040275056 1.266525990737725e-19 1.636278758244434e-11 1.4300237652729609e-11 2.0625499297147343e-12
4.940699165968905 1.2986472982961335e-19 1.703134946752984e-11 1.4883960178132298e-11 2.1473892893975432e-12
5.015371051989984 1.3300655859041547e-19 1.770702329603939e-11 1.5474449998601024e-11 2.2325732974383706e-12
5.091171501069577 1.361194705104959e-19 1.839532270805815e-11 1.6075284697854245e-11 2.3200380102039085e-12
5.129500256944802 1.3764412292824345e-19 1.8741405687254677e-11 1.63776260304181e-11 2.363779656836578e-12
5.168117569889187 1.3915290696934193e-19 1.908948013238094e-11 1.668148072807161e-11 2.4079994043093286e-12
5.20702561229733 1.4069476764550921e-19 1.944630502160879e-11 1.6989729051051597e-11 2.456575970557185e-12
5.246226572918644 1.4221402946875512e-19 1.980427360848754e-11 1.729899796335673e-11 2.505275645130814e-12
5.265937586045735 1.4296491966504268e-19 1.9983641269328156e-11 1.745397757948286e-11 2.5296636898452986e-12
5.285722656980489 1.437098432526662e-19 2.016324005179411e-11 1.7609167128116058e-11 2.5540729236780453e-12
5.305582063971359 1.4444869723694847e-19 2.0343051510298846e-11 1.7764551397801033e-11 2.578500112497809e-12
5.3255160863122235 1.4518774283616864e-19 2.052395659124044e-11 1.79207961203548e-11 2.6031604708856394e-12
5.365609099470188 1.466957771035061e-19 2.0893253565067732e-11 1.8239048132555706e-11 2.6542054325120287e-12
5.406003951863644 1.4817974739922948e-19 2.1263494637993343e-11 1.8558135057391453e-11 2.705359580601886e-12
5.446702915881641 1.4963894447645665e-19 2.1634544555758843e-11 1.887794761071949e-11 2.756596945039354e-12
5.487708281020852 1.5108365032205759e-19 2.20078652917679e-11 1.9199728460684442e-11 2.8081368310834558e-12
5.529022354014368 1.525983285901305e-19 2.239585028895423e-11 1.953398963700314e-11 2.861860651951087e-12
5.570647458961463 1.5409059151597426e-19 2.278511527757473e-11 1.9869431308772673e-11 2.915683968802058e-12
5.612585937458331 1.555601275067962e-19 2.3175586165366222e-11 2.0206005796596196e-11 2.9695803687700316e-12
5.654840148729818 1.5702251967947597e-19 2.3569572630855567e-11 2.054575007277236e-11 3.0238225580832063e-12
5.67608639626678 1.578143154044293e-19 2.3777425303847644e-11 2.072517104955811e-11 3.052254254289533e-12
5.686739436050992 1.582088589435926e-19 2.3881607747990644e-11 2.0815126758791982e-11 3.0664809891986613e-12
5.6974124697621304 1.5860251526891367e-19 2.3985963325471656e-11 2.0905248903162615e-11 3.0807144223090492e-12
5.718818669136295 1.5938721740062487e-19 2.4195201764268848e-11 2.108600206656148e-11 3.109199697707368e-12
5.740305295436557 1.601877170179109e-19 2.440808099067709e-11 2.127013861122885e-11 3.1379423794482344e-12
5.7835210386641895 1.6193279691280223e-19 2.485973929703335e-11 2.1662424619575132e-11 3.1973146774582096e-12
5.827062130521658 1.637186467211384e-19 2.5323120871339385e-11 2.2065729417437834e-11 3.2573914539015417e-12
5.8489554468988025 1.6477889377003215e-19 2.5582873843996902e-11 2.2292876821361298e-11 3.289997022635599e-12
5.870931020387893 1.6585086625144558e-19 2.5846048503145555e-11 2.2523373118991765e-11 3.3226753841537886e-12
5.892989160043636 1.6693594896197693e-19 2.611289037547427e-11 2.2757467254149155e-11 3.3554231213251104e-12
5.915130176081913 1.680911924746266e-19 2.6392388650751706e-11 2.3002966149945228e-11 3.389422500806476e-12
5.95966208400165 1.7097087365672302e-19 2.704663247928431e-11 2.357879910304784e-11 3.4678333762364675e-12
6.004529249263818 1.7462699586717636e-19 2.7832984682341894e-11 2.427638496711637e-11 3.5565997152255256e-12
6.027089341400364 1.7698257942744213e-19 2.831441431614247e-11 2.4706057693974907e-11 3.6083566221675585e-12
6.049734195844842 1.7961199895306184e-19 2.8843042707808303e-11 2.5179759910253716e-11 3.663282797554589e-12
6.095279466722835 1.8677108304505207e-19 3.0218485393467404e-11 2.6418609403656073e-11 3.799875989811334e-12
6.141167624020661 1.970031575797376e-19 3.21139385371306e-11 2.813482213770154e-11 3.979116399429064e-12
6.164241091010745 2.034253137325705e-19 3.3285420181333805e-11 2.9192866641860656e-11 4.092553539473152e-12
6.187401249150058 2.1033191183251284e-19 3.454481594671761e-11 3.0335964210876874e-11 4.208851735840734e-12
6.1990139391386085 2.1367124158362585e-19 3.5159129956882564e-11 3.089113608590809e-11 4.26799387097447e-12
6.204828454712694 2.1539561804250671e-19 3.547611678947612e-11 3.117827051336243e-11 4.297846276113698e-12
6.210648424152782 2.166567665763881e-19 3.5717301152518657e-11 3.13942284547913e-11 4.323072697727362e-12
6.233982942956859 2.2081980737674845e-19 3.6540380836472304e-11 3.2130236485546797e-11 4.4101443509255134e-12
6.239830258556775 2.2128746767217024e-19 3.665211392022295e-11 3.223055136787461e-11 4.421562552348346e-12
6.245683058788269 2.2128485733461606e-19 3.668605990108196e-11 3.225306780219907e-11 4.432992098882889e-12
6.257405133728602 2.210593264297038e-19 3.6717453165610044e-11 3.226484337322809e-11 4.452609792381957e-12
6.269149208991335 2.200966397602523e-19 3.6626165342934525e-11 3.216822544488706e-11 4.4579398980474634e-12
6.280915325867298 2.1788043859182955e-19 3.632541733589433e-11 3.187978936996203e-11 4.445627965932292e-12
6.304513850009849 2.1248224991201647e-19 3.555852129715863e-11 3.115343975922658e-11 4.405081537932054e-12
6.32820103803542 2.0607513121232933e-19 3.461587275172859e-11 3.0268274432873077e-11 4.347598318855518e-12
6.3519772230701035 2.0031196608318208e-19 3.3774214619920163e-11 2.9478668143698654e-11 4.295546476221508e-12
6.375842739491607 1.9535147885845164e-19 3.306158977979348e-11 2.8812502789500857e-11 4.249086990292623e-12
6.399797922933955 1.916803658748464e-19 3.2562168839581465e-11 2.8339518088079454e-11 4.2226507515020174e-12
6.42384311029221 1.8856052333238833e-19 3.2152528623231515e-11 2.7952302640480328e-11 4.200225982751182e-12
6.447978639727206 1.8645335720673958e-19 3.1912676565021986e-11 2.771931563260461e-11 4.193360932417368e-12
6.472204850670314 1.8468486444507292e-19 3.1728752181448426e-11 2.753918288764779e-11 4.1895692938006374e-12
6.496522083828205 1.8368113436637166e-19 3.1674874655788494e-11 2.7476538514437355e-11 4.198336141351138e-12
6.520930681187647 1.8285070625462542e-19 3.165014170312082e-11 2.744118202133287e-11 4.208959681787953e-12
6.57002334288761 1.8225432818812964e-19 3.178441308678551e-11 2.7536985466053468e-11 4.2474276207320385e-12
