Dust emission spectrum from A.P. Jones, M. Kohler, N. Ysard, M. Bocchio, and L. Verstraete (2017), A&A, 602A, 46J 
inside the DustPedia framework.

lambda    nu*dP/dnu     j_nu    j_nu(carb.) j_nu(sil)
 (um)   (erg s-1 H-1) (Jy cm2 sr-1 H-1)
0.9927057738263894 1.687314863996255e-24 4.446170504201132e-17 4.4461705042010344e-17 9.792142336529939e-31
1.0001793341362166 1.715199849348445e-24 4.553675087805087e-17 4.5536750878049694e-17 1.1800427459331568e-30
1.0077091589558085 1.7430453230003524e-24 4.662440673600805e-17 4.6624406736006636e-17 1.4202689985333389e-30
1.0114953028030835 1.756949813954615e-24 4.717290912285941e-17 4.7172909122857854e-17 1.5574031845773677e-30
1.0152956718711033 1.7708403230251227e-24 4.772449817008636e-17 4.7724498170084645e-17 1.7072370353817746e-30
1.0229392996569957 1.798560344665514e-24 4.883647515531516e-17 4.883647515531312e-17 2.049608314257626e-30
1.0267826658714554 1.812356249031425e-24 4.939597145208532e-17 4.93959714520831e-17 2.2447456596101675e-30
1.0306404723013447 1.826132072392089e-24 4.9958433243142885e-17 4.9958433243140426e-17 2.4576786256797692e-30
1.03451277320114 1.83988648543875e-24 5.052383634691742e-17 5.052383634691473e-17 2.6899524297877565e-30
1.0383996230291617 1.8536181662219362e-24 5.109215627906159e-17 5.1092156279058636e-17 2.9432391841846784e-30
1.0403485208654093 1.860475070980325e-24 5.1377402323048276e-17 5.1377402323045195e-17 3.0783220424193176e-30
1.0423010764483396 1.867325800404987e-24 5.1663368258242916e-17 5.16633682582397e-17 3.219347672459652e-30
1.0462171883269815 1.8810080815120014e-24 5.2237447211943456e-17 5.223744721193994e-17 3.5202338253735345e-30
1.0471985131304309 1.884424538036108e-24 5.238141194969601e-17 5.238141194969241e-17 3.599570995181258e-30
1.048180758391296 1.8878393085974562e-24 5.252555389088388e-17 5.2525553890880216e-17 3.680622735368099e-30
1.0501480137395462 1.8946637111701678e-24 5.281436778226381e-17 5.2814367782259964e-17 3.848011941936424e-30
1.0521189612883777 1.9014811282384866e-24 5.310388567270792e-17 5.3103885672703904e-17 4.022692448523806e-30
1.0531058218030118 1.9048819347053186e-24 5.324876134474169e-17 5.3248761344737576e-17 4.112866726133894e-30
1.0540936079674168 1.908263791848871e-24 5.33933318723416e-17 5.33933318723374e-17 4.204997595050378e-30
1.058054026499678 1.921772047557059e-24 5.3973322036338164e-17 5.397332203633357e-17 4.593709686274764e-30
1.0590464539527713 1.925144219476403e-24 5.411874452707275e-17 5.4118744527068054e-17 4.696143168144922e-30
1.06003981227728 1.9285143952019307e-24 5.426433616872553e-17 5.426433616872072e-17 4.800764990873659e-30
1.0620293250338977 1.935248679580596e-24 5.4556025238895087e-17 5.455602523889008e-17 5.016752666832043e-30
1.0660195594769086 1.9486924326722923e-24 5.5141414810626974e-17 5.51414148106215e-17 5.477006112692346e-30
1.070024785945596 1.9621020610575527e-24 5.572946383300718e-17 5.572946383300121e-17 5.977577391801063e-30
1.0740450607676866 1.9754763286392836e-24 5.632014514419514e-17 5.632014514418861e-17 6.521818514445188e-30
1.07808044048254 1.988814009197194e-24 5.691343134485337e-17 5.691343134484626e-17 7.113344136301553e-30
1.0861967418109137 2.0153511929314582e-24 5.810702832091125e-17 5.81070283209028e-17 8.45413859579846e-30
1.0902777775684922 2.028494714207662e-24 5.870572740731127e-17 5.870572740730203e-17 9.212132719233351e-30
1.0943741465085532 2.0415959089176437e-24 5.930687551544287e-17 5.930687551543282e-17 1.0034901644380823e-29
1.1026131145906286 2.0676666607978236e-24 6.051640378625501e-17 6.05164037862431e-17 1.1896137493141751e-29
1.1109141095355224 2.09355424530027e-24 6.173538117521494e-17 6.173538117520085e-17 1.408475695361066e-29
1.1192775983109025 2.1192256161082404e-24 6.296285892367609e-17 6.296285892365944e-17 1.6655010015287073e-29
1.1277040513999907 2.14456157523178e-24 6.41952794996158e-17 6.419527949959617e-17 1.966955121601045e-29
1.1361939428280308 2.169684446678138e-24 6.543626138049138e-17 6.543626138046818e-17 2.320063299249937e-29
1.1447477501889525 2.1945858500251156e-24 6.668556058915856e-17 6.668556058913122e-17 2.733147813904176e-29
1.1533659546722406 2.219271163515033e-24 6.794334601491612e-17 6.794334601488397e-17 3.2157862961285376e-29
1.1707974979042381 2.2680731801191012e-24 7.048687906067901e-17 7.048687906063465e-17 4.4353949878522335e-29
1.1884924949847024 2.3159056879136947e-24 7.306119074639102e-17 7.306119074633012e-17 6.087619322113191e-29
1.2064549276569216 2.3631424826745505e-24 7.567813874015306e-17 7.567813874006991e-17 8.314989777705422e-29
1.2246888378427687 2.4092678648396896e-24 7.832137091197641e-17 7.83213709118634e-17 1.1302862717332482e-28
1.2431983285522175 2.4541738989710753e-24 8.098697609813996e-17 8.098697609798702e-17 1.5291481476714408e-28
1.2619875648066055 2.4978437272669994e-24 8.36738539480714e-17 8.367385394786545e-17 2.0590637378886707e-28
1.3004222497298317 2.580748927001942e-24 8.908397348758284e-17 8.908397348721463e-17 3.6819163309441907e-28
1.3400274889804893 2.6576585191731308e-24 9.453275578729261e-17 9.453275578664606e-17 6.465445012281457e-28
1.3808389325824078 2.7282867523992337e-24 1.0000056890415262e-16 1.0000056890303721e-16 1.1154301568918873e-27
1.4228933163050095 2.7929762826412182e-24 1.0548944810547823e-16 1.0548944810358669e-16 1.8915533540013347e-27
1.466228494730424 2.853281803535341e-24 1.1104928205528822e-16 1.1104928205213364e-16 3.1545996928929797e-27
1.5108834753276823 2.9080313296888163e-24 1.1662710232655267e-16 1.166271023213765e-16 5.176217070949479e-27
1.5568984535646726 2.9562763113291707e-24 1.2217286087559076e-16 1.221728608672256e-16 8.365146597464847e-27
1.6043148490894465 2.9981039478671906e-24 1.276749576767233e-16 1.2767495766338446e-16 1.3338785140913954e-26
1.6531753430134553 3.033640433316942e-24 1.3312280389236957e-16 1.331228038714062e-16 2.096338162501306e-26
1.7035239163302658 3.0633065735008045e-24 1.3851861197625356e-16 1.3851861194377298e-16 3.248054009072548e-26
1.755405889504358 3.0895376188248937e-24 1.4395954713850857e-16 1.439595470888687e-16 4.963982755127482e-26
1.8088679632656115 3.1117314847444847e-24 1.4940956944284803e-16 1.4940956936798794e-16 7.48600829851494e-26
1.8639582606462262 3.1294801141051606e-24 1.548380924437169e-16 1.5483809233226879e-16 1.1144807567313124e-25
1.9207263702978936 3.143078366009186e-24 1.6024708619895202e-16 1.602470860350884e-16 1.6386354734072145e-25
1.979223391128241 3.153213409131198e-24 1.6565998311163245e-16 1.6565998287357982e-16 2.3805264095748374e-25
2.039501978296691 3.160707843118545e-24 1.7111099554541915e-16 1.7111099520357221e-16 3.4184693848929423e-25
2.1016163906111602 3.167866760370804e-24 1.7672166186178568e-16 1.7672166137629975e-16 4.854859284198605e-25
2.1656225393682647 3.1760268403921553e-24 1.8257291928513183e-16 1.8257291860294313e-16 6.82188724108225e-25
2.231578038680979 3.1852839349850438e-24 1.886816489747983e-16 1.8868164802592902e-16 9.48869300939629e-25
2.299542257339062 3.1964390047437086e-24 1.9510897588443891e-16 1.9510897457742133e-16 1.3070175214611442e-24
2.369576372248914 3.211263130237963e-24 2.0198356666772808e-16 2.0198356488391927e-16 1.783808865254255e-24
2.4417434235010123 3.231848407182417e-24 2.094693289073664e-16 2.094693264939688e-16 2.4133976593348897e-24
2.5161083711144245 3.2617777567351574e-24 2.178477819589895e-16 2.178477787203054e-16 3.238684074788308e-24
2.5927381535095444 3.306914375969459e-24 2.2758888166389295e-16 2.2758887735044077e-16 4.313452152633348e-24
2.6717017477616296 3.374260512198922e-24 2.392963184991941e-16 2.392963127943472e-16 5.7048469218562645e-24
2.753070231689431 3.474359101652274e-24 2.538992556522465e-16 2.538992481553976e-16 7.496848913105675e-24
2.836916847834745 3.6310850220815766e-24 2.7343396342086333e-16 2.7343395362564625e-16 9.795217122715396e-24
2.9233170693905177 3.897004797318009e-24 3.0239617669238895e-16 3.023961639605843e-16 1.2731804586157967e-23
2.967498994190263 4.1227923075478564e-24 3.247517279265906e-16 3.247517134547117e-16 1.4471878990921804e-23
3.0123486681368425 4.386497684539792e-24 3.5074587803642885e-16 3.5074586159438417e-16 1.644204474232374e-23
3.0578761833420214 4.9763303768903476e-24 4.0392295486141146e-16 4.0392293618196713e-16 1.8679444355000924e-23
3.1040917844459814 5.736370351287276e-24 4.726516408076956e-16 4.726516196021125e-16 2.1205583215712714e-23
3.127460860933648 6.54024023889813e-24 5.429439744389689e-16 5.429439518390777e-16 2.2599891280376356e-23
3.1510058709225794 7.611236310107307e-24 6.366105790040427e-16 6.36610554918746e-16 2.4085296760001988e-23
3.162844764501044 8.60809584971225e-24 7.226939250097903e-16 7.226939001365501e-16 2.4873240149779588e-23
3.1747281389236908 9.767341036742118e-24 8.230994778963003e-16 8.230994522098318e-16 2.568646826565927e-23
3.1986289994194426 1.300071426818373e-23 1.1038257391410697e-15 1.1038257117370658e-15 2.740400410312838e-23
3.2227097969389145 2.0622260935506034e-23 1.7641150705710348e-15 1.7641150412422124e-15 2.932882197687129e-23
3.2348180950136065 2.784975465565056e-23 2.3913363773135754e-15 2.3913363468923596e-15 3.0421215946222074e-23
3.240889293275058 3.3253216452438884e-23 2.8606668833566885e-15 2.8606668523276017e-15 3.1029086956451714e-23
3.2469718861334385 3.9504184966352064e-23 3.4047957753040408e-15 3.4047957436237048e-15 3.1680336211394574e-23
3.2714166318528037 7.284782611734299e-23 6.3258936549256586e-15 6.325893620426914e-15 3.449874173171565e-23
3.2744851364798273 7.493228436744365e-23 6.513005262279556e-15 6.513005227460691e-15 3.481886551210873e-23
3.2775565192852394 7.707661337192644e-23 6.7056710759544615e-15 6.705671040812061e-15 3.514240292333891e-23
3.283707930232385 7.501464616071299e-23 6.538528482564116e-15 6.538528446918745e-15 3.5645369550820245e-23
3.2898708863219004 6.84751988190246e-23 5.979730193723125e-15 5.979730157687813e-15 3.6035312865460005e-23
3.29141343181113 6.693303431390959e-23 5.8477982870107706e-15 5.847798250877431e-15 3.613333808615845e-23
3.292184975758714 6.617526936600394e-23 5.782949228895855e-15 5.782949192713422e-15 3.6182431863591705e-23
3.295272960557952 6.13921526345732e-23 5.369992627038356e-15 5.369992590681902e-15 3.6356452658899075e-23
3.3076538914384823 4.482195459460015e-23 3.9353220921987895e-15 3.935322055151272e-15 3.704751753589577e-23
3.310756385682612 4.144949624678913e-23 3.6426371725011214e-15 3.642637135278979e-15 3.722214127852468e-23
3.313861789986515 3.833787892843918e-23 3.3723442884820047e-15 3.372344251084491e-15 3.73975136934355e-23
3.3200813396944477 3.3974219705402925e-23 2.994109283059695e-15 2.9941092452366107e-15 3.7823083517846075e-23
3.345076488085796 2.619015347784242e-23 2.325484928809141e-15 2.3254848888087025e-15 4.000043814651185e-23
3.3482140837626964 2.648213058866332e-23 2.3536158210959346e-15 2.3536157807692547e-15 4.032667958307844e-23
3.3513546224236106 2.677733590039639e-23 2.382084617013165e-15 2.382084576357521e-15 4.065564367049783e-23
3.3576445397418455 2.8934420417266904e-23 2.5788075780764004e-15 2.5788075366910285e-15 4.138537131170179e-23
3.3702598118196083 3.6890444584834945e-23 3.3002489680736594e-15 3.3002489250682993e-15 4.3005359617339884e-23
3.382922481734668 3.8702764186229897e-23 3.4753893273884002e-15 3.4753892829017144e-15 4.448668641851832e-23
3.389271646505754 3.964167225315353e-23 3.566381333986313e-15 3.566381288738918e-15 4.524739474986199e-23
3.395632727569191 4.065339040542585e-23 3.664265338215732e-15 3.664265292170038e-15 4.6045693457603353e-23
3.421196662673239 4.551122414686592e-23 4.133005563971735e-15 4.133005514532511e-15 4.9439223943592684e-23
3.4276182099114902 4.4532598175428795e-23 4.051724509189527e-15 4.0517244590451686e-15 5.014435862034888e-23
3.4340518103208963 4.0243641854553463e-23 3.668373534760935e-15 3.66837348399168e-15 5.0769254885438243e-23
3.4469541582030403 3.4135467344226704e-23 3.123279091166802e-15 3.1232790392604862e-15 5.19063152612138e-23
3.472904465399547 3.242424668344874e-23 2.9890430122128333e-15 2.9890429572019096e-15 5.501092318249157e-23
3.4990501388274233 2.98066722735774e-23 2.7684270957247518e-15 2.768427037484508e-15 5.824024376174851e-23
3.5253949054701885 2.0489251130494216e-23 1.917358358784514e-15 1.91735829761782e-15 6.116669396780666e-23
3.5519380250092896 1.1731974764049556e-23 1.1061293924016989e-15 1.1061293283193723e-15 6.408232674645685e-23
3.578680990867387 8.260214888235353e-24 7.846640672308774e-16 7.846639995667698e-16 6.766410777323761e-23
3.605625307711299 6.85656434990512e-24 6.562307587302154e-16 6.562306870489953e-16 7.168122007016611e-23
3.660119384959845 5.834077977671102e-24 5.668092302747015e-16 5.668091496202892e-16 8.065441259853606e-23
3.715437065384467 5.111019670468516e-24 5.040654082511158e-16 5.040653175096122e-16 9.074150365298241e-23
3.8285932144167436 4.749436220434681e-24 4.826704577811083e-16 4.826703427707905e-16 1.1501031790129617e-22
3.94519561050918 4.688093236853385e-24 4.909465524485491e-16 4.909464066692888e-16 1.4577926027715481e-22
4.06534921144712 4.752517701286337e-24 5.12850795354791e-16 5.12850610533645e-16 1.848211461125259e-22
4.189162171576248 4.8923315488177815e-24 5.44017020207115e-16 5.440167857630306e-16 2.3444408438719315e-22
4.316745939156006 5.089629590984333e-24 5.831927265635176e-16 5.831924290623946e-16 2.9750112297383195e-22
4.448215356677963 5.339484751080942e-24 6.304557190595241e-16 6.3045534164819425e-16 3.7741133000414865e-22
4.58368876423945 5.6444650012864715e-24 6.867637108571849e-16 6.867632320638306e-16 4.787933542659846e-22
4.723288106065518 6.012785008277892e-24 7.538579960014283e-16 7.538573884361086e-16 6.075653193945033e-22
4.867139040275056 6.459141501171549e-24 8.344839436501317e-16 8.344831732258306e-16 7.704243010807406e-22
4.940699165968905 6.727830339904754e-24 8.823337162253817e-16 8.823328486573569e-16 8.67568024818811e-22
5.015371051989984 7.009235763719561e-24 9.33132187396948e-16 9.331312107117592e-16 9.766851886593936e-22
5.091171501069577 7.348249781527821e-24 9.930498962688743e-16 9.93048796196885e-16 1.1000719897579085e-21
5.129500256944802 7.523604112036983e-24 1.0244020150972238e-15 1.024400847791678e-15 1.1673055456521861e-21
5.168117569889187 7.706733115301998e-24 1.0572364738491062e-15 1.0572352352156121e-15 1.2386334941518224e-21
5.20702561229733 7.926867441027899e-24 1.0956219957836377e-15 1.0956206804906373e-15 1.3152930004329808e-21
5.246226572918644 8.153419585517906e-24 1.1354192896409963e-15 1.1354178931397723e-15 1.3965012242840627e-21
5.265937586045735 8.269170821231597e-24 1.1558649749424781e-15 1.1558635360535328e-15 1.4388889453741363e-21
5.285722656980489 8.386609746407384e-24 1.1766850600499206e-15 1.1766835775411399e-15 1.4825087811484724e-21
5.305582063971359 8.505765224553818e-24 1.1978870243029568e-15 1.197885496908961e-15 1.5273939960057685e-21
5.3255160863122235 8.63299884081175e-24 1.2203736348528048e-15 1.220372061090053e-15 1.5737627518364164e-21
5.365609099470188 8.943075772869396e-24 1.2737241211949558e-15 1.2737224491513106e-15 1.6720436453774434e-21
5.406003951863644 9.265432433623419e-24 1.3295708511382281e-15 1.3295690749573212e-15 1.7761809066856716e-21
5.446702915881641 9.600646494687074e-24 1.3880451715300401e-15 1.388043285033153e-15 1.8864968869834175e-21
5.487708281020852 9.961739867456569e-24 1.451094334875296e-15 1.4510923310909994e-15 2.0037842962834088e-21
5.529022354014368 1.0450220225491822e-23 1.5337099024546804e-15 1.533707770315192e-15 2.13213948886689e-21
5.570647458961463 1.0967118492413635e-23 1.6216892715773687e-15 1.6216870032490689e-15 2.2683283004292383e-21
5.612585937458331 1.1514407775519956e-23 1.7154341142659906e-15 1.715431701475119e-15 2.412790871514656e-21
5.654840148729818 1.2113717072787973e-23 1.8183069215773778e-15 1.818304354706453e-15 2.566870924597986e-21
5.67608639626678 1.2514162848718197e-23 1.8854726303696967e-15 1.885469979079322e-15 2.6512903742674582e-21
5.686739436050992 1.2720407557279807e-23 1.9201439521527842e-15 1.9201412576621743e-15 2.6944906093959043e-21
5.6974124697621304 1.2930791815979262e-23 1.9555648139722725e-15 1.955562075608377e-15 2.7383638952616325e-21
5.718818669136295 1.3364368234605567e-23 2.028729726020046e-15 2.0287268978515585e-15 2.8281684874143624e-21
5.740305295436557 1.3840297203561524e-23 2.1088701516471426e-15 2.108867229557171e-15 2.9220899721731626e-21
5.7835210386641895 1.5061361357260726e-23 2.3122031110321214e-15 2.312199981415635e-15 3.1296164862788835e-21
5.827062130521658 1.646221453395647e-23 2.5462869184556687e-15 2.5462835642677314e-15 3.3541879376590813e-21
5.8489554468988025 1.7434823691563997e-23 2.7068569571543556e-15 2.706853472004789e-15 3.485149566787387e-21
5.870931020387893 1.847692189888651e-23 2.8794267427185686e-15 2.879423121606826e-15 3.6211117429854665e-21
5.892989160043636 1.9594048886396116e-23 3.064991415951312e-15 3.0649876536971084e-15 3.762254202645069e-21
5.915130176081913 2.086106659041808e-23 3.2754445311382685e-15 3.2754406175722227e-15 3.913566045756269e-21
5.95966208400165 2.4381756605832794e-23 3.8570570297333865e-15 3.857052750084748e-15 4.279648638676836e-21
6.004529249263818 2.943113856263826e-23 4.690892291480831e-15 4.6908875519991175e-15 4.7394817151380554e-21
6.027089341400364 3.2929797766186934e-23 5.268246967102501e-15 5.26824193647247e-15 5.030630031575211e-21
6.049734195844842 3.7058136957570415e-23 5.950991209770685e-15 5.95098585393008e-15 5.355840607003853e-21
6.095279466722835 4.8956463651427537e-23 7.920873818617998e-15 7.920867585895589e-15 6.232722409128303e-21
6.141167624020661 6.723211583930343e-23 1.0959662080089948e-14 1.0959654580025429e-14 7.500064523577995e-21
6.164241091010745 7.889917702752243e-23 1.2909859698065904e-14 1.290985136634291e-14 8.33172299499415e-21
6.187401249150058 9.217958170732761e-23 1.5139531877886066e-14 1.5139522629346184e-14 9.248539875828133e-21
6.1990139391386085 9.866678630979957e-23 1.6235401341721995e-14 1.623539162107782e-14 9.720644177655467e-21
6.204828454712694 1.0208298719306666e-22 1.6813285287749683e-14 1.681327532171849e-14 9.966031194594811e-21
6.210648424152782 1.0458112134924173e-22 1.7240889657521805e-14 1.7240879487074603e-14 1.0170447204935187e-20
6.233982942956859 1.130771768295115e-22 1.8711560137419743e-14 1.8711549239971694e-14 1.0897448053303867e-20
6.239830258556775 1.1416973097136756e-22 1.8910072178163542e-14 1.891006117932864e-14 1.0998834901521399e-20
6.245683058788269 1.1427659890612388e-22 1.8945526608820325e-14 1.8945515507710974e-14 1.1101109346904823e-20
6.257405133728602 1.1407131832409617e-22 1.8946987470516412e-14 1.8946976190019347e-14 1.1280497069123527e-20
6.269149208991335 1.1243758326047194e-22 1.8710678726144363e-14 1.87106673852117e-14 1.1340932664461571e-20
6.280915325867298 1.0829946089712915e-22 1.8055880278956395e-14 1.805586902553848e-14 1.1253417907119854e-20
6.304513850009849 9.807978008740091e-23 1.6413474304336462e-14 1.6413463363699456e-14 1.0940637006630244e-20
6.32820103803542 8.54003656551258e-23 1.4345293258229208e-14 1.4345282802112573e-14 1.045611663547733e-20
6.3519772230701035 7.377522715338966e-23 1.2439098892760272e-14 1.2439088894252863e-14 9.998507406450368e-21
6.375842739491607 6.399668631115963e-23 1.083089927165988e-14 1.083088967435435e-14 9.597305532373816e-21
6.399797922933955 5.617529642926561e-23 9.542915251620578e-15 9.542905921268626e-15 9.330351954676271e-21
6.42384311029221 4.967674714971963e-23 8.470665049146288e-15 8.470655943262299e-15 9.105883989803418e-21
6.447978639727206 4.4958254227804736e-23 7.694890816629954e-15 7.694881810237792e-15 9.006392161709063e-21
6.472204850670314 4.10344063648377e-23 7.049687121761968e-15 7.049678183703057e-15 8.938058907316915e-21
6.496522083828205 3.8505804827463746e-23 6.64012962266127e-15 6.640120644025813e-15 8.978635456736263e-21
