Dust emission spectrum from A.P. Jones, M. Kohler, N. Ysard, M. Bocchio, and L. Verstraete (2017), A&A, 602A, 46J 
inside the DustPedia framework.

lambda    nu*dP/dnu     j_nu    j_nu(carb.) j_nu(sil)
 (um)   (erg s-1 H-1) (Jy cm2 sr-1 H-1)
0.9927057738263894 3.810429615065418e-24 1.0040698463778801e-16 1.0040694520722248e-16 3.9430565512840843e-23
1.0001793341362166 3.874595226854824e-24 1.0286642554545248e-16 1.0286637808195507e-16 4.7463497384632584e-23
1.0077091589558085 3.938963522950894e-24 1.053626288364302e-16 1.0536257177901918e-16 5.705741102139971e-23
1.0114953028030835 3.971219972755737e-24 1.0662455887685911e-16 1.0662449634916047e-16 6.252769866236411e-23
1.0152956718711033 4.003522699409143e-24 1.0789573134152098e-16 1.0789566284179627e-16 6.849972469265805e-23
1.0229392996569957 4.068229977995654e-24 1.1046502433780843e-16 1.1046494220909806e-16 8.212871037434278e-23
1.0267826658714554 4.100560593298773e-24 1.1176123574621789e-16 1.1176114585907473e-16 8.988714313237304e-23
1.0306404723013447 4.132930373496189e-24 1.1306669943779112e-16 1.1306660109192423e-16 9.834586686294511e-23
1.03451277320114 4.165338027342103e-24 1.1438143520731357e-16 1.143813276424041e-16 1.0756490946044098e-22
1.0383996230291617 4.1977822963361965e-24 1.157054635189671e-16 1.1570534590981627e-16 1.176091508397532e-22
1.0403485208654093 4.214017777443513e-24 1.1637096896660472e-16 1.1637084600419225e-16 1.2296241247198033e-22
1.0423010764483396 4.230261955769562e-24 1.170388055487471e-16 1.1703867700005757e-16 1.2854868954280577e-22
1.0462171883269815 4.262775815779616e-24 1.1838148322794227e-16 1.183813427687073e-16 1.4045923494337196e-22
1.0471985131304309 4.27090948858913e-24 1.1871861398854593e-16 1.1871847039051476e-16 1.4359803117387868e-22
1.048180758391296 4.279045208958831e-24 1.1905633000706896e-16 1.1905618320313774e-16 1.4680393117939996e-22
1.0501480137395462 4.295322722414272e-24 1.1973351928770182e-16 1.1973336586517515e-16 1.5342252667548714e-22
1.0521189612883777 4.311608217689104e-24 1.2041305404370715e-16 1.2041289371745253e-16 1.6032625466913664e-22
1.0531058218030118 4.319742878246274e-24 1.2075339337499007e-16 1.2075322948608086e-16 1.638889091845091e-22
1.0540936079674168 4.3278433216827246e-24 1.2109330782942593e-16 1.210931403013654e-16 1.6752806057106277e-22
1.058054026499678 4.360262732401856e-24 1.2245878220475145e-16 1.2245859933163605e-16 1.8287311538784451e-22
1.0590464539527713 4.368371913983968e-24 1.2280160687204863e-16 1.2280141995753336e-16 1.8691451527331513e-22
1.06003981227728 4.376482795542158e-24 1.2314501475581493e-16 1.2314482371452839e-16 1.9104128657830071e-22
1.0620293250338977 4.392709596693457e-24 1.2383358177837963e-16 1.2383338222054887e-16 1.9955783073861965e-22
1.0660195594769086 4.425182926961464e-24 1.252177323097971e-16 1.2521751461681056e-16 2.1769298655726143e-22
1.070024785945596 4.457681777396601e-24 1.2661126060821777e-16 1.2661102321024213e-16 2.3739797561626053e-22
1.0740450607676866 4.490205245098371e-24 1.2801419458432976e-16 1.2801393578290253e-16 2.588014272376628e-22
1.07808044048254 4.522752471208758e-24 1.2942656330332767e-16 1.294262812614551e-16 2.820418725471788e-22
1.0861967418109137 4.5878640903120285e-24 1.3227825977093582e-16 1.3227792512921624e-16 3.3464171958442297e-22
1.0902777775684922 4.620311253980251e-24 1.3371429124923503e-16 1.337139269148215e-16 3.643344135855532e-22
1.0943741465085532 4.652777185070009e-24 1.3515979147035552e-16 1.35159394938188e-16 3.965321675018254e-22
1.1026131145906286 4.717762957323675e-24 1.3807934011136646e-16 1.3807887085496575e-16 4.692564007110082e-22
1.1109141095355224 4.782817144743728e-24 1.4103720511897122e-16 1.4103665052203823e-16 5.545969330017527e-22
1.1192775983109025 4.847884131438936e-24 1.4403216076948722e-16 1.4403150615987052e-16 6.546096167068394e-22
1.1277040513999907 4.91272140266802e-24 1.4705734131878833e-16 1.4705656965651625e-16 7.716622720416598e-22
1.1361939428280308 4.977611878762236e-24 1.501215130375329e-16 1.501206045593313e-16 9.084782015989906e-22
1.1447477501889525 5.042555082132025e-24 1.5322508912095476e-16 1.532240209355478e-16 1.068185406978365e-21
1.1533659546722406 5.1075764845667674e-24 1.5636928109268346e-16 1.5636802671903335e-16 1.2543736500725827e-21
1.1707974979042381 5.2380656421023904e-24 1.627879129576326e-16 1.6278618970903334e-16 1.723248599264274e-21
1.1884924949847024 5.368887424671161e-24 1.6937533781143233e-16 1.693729822580378e-16 2.355553394599989e-21
1.2064549276569216 5.500978725033375e-24 1.7616535363899974e-16 1.7616214963493388e-16 3.2040040658263715e-21
1.2246888378427687 5.6334548881827826e-24 1.8313443525824337e-16 1.8313009851145745e-16 4.3367467858779326e-21
1.2431983285522175 5.7662395285166525e-24 1.9028411273867591e-16 1.9027827117383166e-16 5.841564844196575e-21
1.2619875648066055 5.899560286119253e-24 1.9762603254555747e-16 1.9761820158467547e-16 7.830960882015662e-21
1.3004222497298317 6.1671747231730055e-24 2.1288255660370228e-16 2.1286868141013836e-16 1.387519356396442e-20
1.3400274889804893 6.43774540259221e-24 2.2899022187145393e-16 2.2896608722288215e-16 2.413464857176258e-20
1.3808389325824078 6.71325659794181e-24 2.460626539359821e-16 2.4602142292667533e-16 4.1231009306810176e-20
1.4228933163050095 6.997546160341217e-24 2.6429414640390173e-16 2.6422493103204876e-16 6.921537185299742e-20
1.466228494730424 7.297770642545341e-24 2.840280933536545e-16 2.8391385982473055e-16 1.1423352892394996e-19
1.5108834753276823 7.616083825753821e-24 3.054443666426534e-16 3.0525893315447805e-16 1.8543348817531761e-19
1.5568984535646726 7.955985502272726e-24 3.287938634735938e-16 3.284974875788245e-16 2.963758947692213e-19
1.6043148490894465 8.324419113593338e-24 3.544973344794836e-16 3.540300668707917e-16 4.672676086918519e-19
1.6531753430134553 8.729873207841054e-24 3.8308600659769094e-16 3.8236015939158495e-16 7.258472061059404e-19
1.7035239163302658 9.18301970426232e-24 4.1524382645492626e-16 4.141326491243116e-16 1.1111773306146562e-18
1.755405889504358 9.701150661544769e-24 4.520330962953657e-16 4.503558505076096e-16 1.6772457877560235e-18
1.8088679632656115 1.0297019384015072e-23 4.944106650116958e-16 4.919135522709219e-16 2.4971127407738487e-18
1.8639582606462262 1.0986022280584619e-23 5.435582497562194e-16 5.398898276407068e-16 3.6684221155124175e-18
1.9207263702978936 1.1788083789972123e-23 6.010050845822948e-16 5.956854399334228e-16 5.319644648871947e-18
1.979223391128241 1.2727238686627893e-23 6.686493656848348e-16 6.610318302367864e-16 7.617535448048379e-18
2.039501978296691 1.383093104359117e-23 7.4876404199822345e-16 7.379887682271861e-16 1.0775273771037236e-17
2.1016163906111602 1.5134176836721693e-23 8.442706350384957e-16 8.292079666133188e-16 1.506266842517689e-17
2.1656225393682647 1.6673398800508275e-23 9.584651661942956e-16 9.376498449023252e-16 2.0815321291970204e-17
2.231578038680979 1.848487980997602e-23 1.0949597193958187e-15 1.0665147525995047e-15 2.8444966796314045e-17
2.299542257339062 2.061075095378611e-23 1.2580695282577001e-15 1.2196192090148108e-15 3.845031924288977e-17
2.369576372248914 2.3098486351412463e-23 1.4528596594756153e-15 1.401430998948196e-15 5.142866052741921e-17
2.4417434235010123 2.5999178354457414e-23 1.6851132095020098e-15 1.6170284416454081e-15 6.808476785660177e-17
2.5161083711144245 2.937030388394395e-23 1.961585378822054e-15 1.8723427693417585e-15 8.924260948029567e-17
2.5927381535095444 3.327532673144299e-23 2.290078767337184e-15 2.174226079891204e-15 1.1585268744598014e-16
2.6717017477616296 3.777817474659754e-23 2.6791583233710537e-15 2.530167047485216e-15 1.4899127588583742e-16
2.753070231689431 4.29466383017191e-23 3.1384549433554954e-15 2.948592123110755e-15 1.898628202447401e-16
2.836916847834745 4.8870850789799145e-23 3.6801535480278815e-15 3.4403470536668556e-15 2.398064943610261e-16
2.9233170693905177 5.567670034040676e-23 4.320349137207625e-15 4.0201170439644616e-15 3.0023209324316354e-16
2.967498994190263 5.944662442904768e-23 4.6826016356421136e-15 4.348383984301374e-15 3.342176513407382e-16
3.0123486681368425 6.347669594487027e-23 5.075618649590326e-15 4.704058660920773e-15 3.715599886695517e-16
3.0578761833420214 6.825559942195175e-23 5.5402277011961144e-15 5.127575406805198e-15 4.1265229439091575e-16
3.1040917844459814 7.347400817713988e-23 6.053934525662228e-15 5.596546623833613e-15 4.573879018286155e-16
3.127460860933648 7.682189550124333e-23 6.377439320853955e-15 5.896091720345886e-15 4.813476005080682e-16
3.1510058709225794 8.061489646571433e-23 6.742701687929305e-15 6.236374269921338e-15 5.063274180079696e-16
3.162844764501044 8.326248072785303e-23 6.990313543648047e-15 6.4710570142411565e-15 5.192565294068892e-16
3.1747281389236908 8.614492807126277e-23 7.259482908617807e-15 6.727032989787505e-15 5.324499188303003e-16
3.1986289994194426 9.328171732218571e-23 7.92008488514339e-15 7.360373346883369e-15 5.597115382600215e-16
3.2227097969389145 1.0711544518436422e-22 9.163106399032945e-15 8.574501977992793e-15 5.886044210401502e-16
3.2348180950136065 1.1918699429887385e-22 1.023406484881671e-14 9.630040158864059e-15 6.040246899526502e-16
3.240889293275058 1.2793871510902142e-22 1.1006154725966089e-14 1.0393996207809397e-14 6.1215851815669105e-16
3.2469718861334385 1.3798843194191735e-22 1.1892978693696465e-14 1.1272404005237415e-14 6.2057468845905e-16
3.2714166318528037 1.9010257807428552e-22 1.650795578289514e-14 1.5852596608000245e-14 6.553591748949007e-16
3.2744851364798273 1.9350608185981845e-22 1.681926742358425e-14 1.615980753888436e-14 6.594598846998922e-16
3.2775565192852394 1.969946648456326e-22 1.7138550441992327e-14 1.6474969219855338e-14 6.635812221369876e-16
3.283707930232385 1.9451180717933102e-22 1.6954302346668397e-14 1.6283347861869355e-14 6.70954484799039e-16
3.2898708863219004 1.8533941420557643e-22 1.6185125568472636e-14 1.5507458254453644e-14 6.776673140189901e-16
3.29141343181113 1.8317961093198907e-22 1.6004016940268548e-14 1.5324663929376676e-14 6.793530108918694e-16
3.292184975758714 1.8211887156880469e-22 1.5915072171164474e-14 1.523487518696811e-14 6.801969841963647e-16
3.295272960557952 1.7534193322223694e-22 1.5337218980065658e-14 1.4653738580971648e-14 6.834803990940101e-16
3.3076538914384823 1.5184821762867954e-22 1.3332119290646549e-14 1.2635449741238918e-14 6.966695494076312e-16
3.310756385682612 1.4707142087547556e-22 1.2924833187449524e-14 1.2224838924289824e-14 6.999942631596981e-16
3.313861789986515 1.4266719927777606e-22 1.2549544421489455e-14 1.184621445271474e-14 7.033299687747153e-16
3.3200813396944477 1.367058850199571e-22 1.2047733926970863e-14 1.1337230482082477e-14 7.105034448883875e-16
3.345076488085796 1.2775024569616034e-22 1.1343242843896448e-14 1.0600775025187349e-14 7.424678187091009e-16
3.3482140837626964 1.2854636975771457e-22 1.142463853477569e-14 1.0677840799849816e-14 7.467977349258738e-16
3.3513546224236106 1.2934801844154147e-22 1.1506668404834476e-14 1.0755521095299074e-14 7.511473095353995e-16
3.3576445397418455 1.3332912057791855e-22 1.188308393830534e-14 1.1122843209997245e-14 7.602407283080925e-16
3.3702598118196083 1.4670036604317693e-22 1.312393323253816e-14 1.2344618429780234e-14 7.793148027579301e-16
3.382922481734668 1.5091967736634355e-22 1.3552123395840168e-14 1.2754261149000399e-14 7.97862246839771e-16
3.389271646505754 1.53081440342672e-22 1.3772042408589716e-14 1.2964777626284841e-14 8.072647823048787e-16
3.395632727569191 1.5540725334636345e-22 1.4007525720865523e-14 1.319057100999104e-14 8.169547108744856e-16
3.421196662673239 1.6617902385545967e-22 1.5091196580290264e-14 1.423412157561324e-14 8.570750046770231e-16
3.4276182099114902 1.6538406987430337e-22 1.5047195016547588e-14 1.4181157991729958e-14 8.660370248176261e-16
3.4340518103208963 1.5948140697447925e-22 1.4537386421090576e-14 1.3662868756868123e-14 8.74517664222456e-16
3.4469541582030403 1.5135866556172376e-22 1.3848802790619876e-14 1.2957999233680653e-14 8.90803556939223e-16
3.472904465399547 1.5143954995373762e-22 1.3960519514334312e-14 1.303221291550377e-14 9.283065988305432e-16
3.4990501388274233 1.5021712596730088e-22 1.3952082874357777e-14 1.2985380216189207e-14 9.667026581685707e-16
3.5253949054701885 1.3890919577989485e-22 1.2998947884640993e-14 1.199491359743091e-14 1.0040342872100864e-15
3.5519380250092896 1.2829294902983398e-22 1.2095883652481486e-14 1.1054303588308975e-14 1.041580064172516e-15
3.578680990867387 1.2596706670967747e-22 1.1966012051615595e-14 1.0883277379646475e-14 1.0827346719691202e-15
3.605625307711299 1.2692384716167747e-22 1.2147677506303588e-14 1.102158531611189e-14 1.1260921901916967e-15
3.660119384959845 1.3174056736404983e-22 1.2799240920221241e-14 1.1581996803960607e-14 1.2172441162606355e-15
3.715437065384467 1.371684638286104e-22 1.3528000707656997e-14 1.2214577125732359e-14 1.3134235819246428e-15
3.8285932144167436 1.502615635158815e-22 1.52706161916788e-14 1.3750179017304215e-14 1.5204371743745864e-15
3.94519561050918 1.644946394262334e-22 1.7226209472058345e-14 1.5479586672224538e-14 1.7466227998338082e-15
4.06534921144712 1.7953893418458627e-22 1.937429610599761e-14 1.7382481289878516e-14 1.99181481611909e-15
4.189162171576248 1.9524992738989786e-22 2.1711382933557607e-14 1.9454828630205834e-14 2.2565543033517642e-15
4.316745939156006 2.1150922618351954e-22 2.4235681616164625e-14 2.1695731502567673e-14 2.5399501135969535e-15
4.448215356677963 2.2818655459971664e-22 2.6942958930776225e-14 2.4104779982998375e-14 2.8381789477778625e-15
4.58368876423945 2.4519636445856057e-22 2.983311352021357e-14 2.6681447120021376e-14 3.1516664001921997e-15
4.723288106065518 2.6246627927613764e-22 3.2906931320621016e-14 2.942451084278514e-14 3.4824204778358802e-15
4.867139040275056 2.7984718439836924e-22 3.6154647179316306e-14 3.233279329979705e-14 3.821853879519252e-15
4.940699165968905 2.8858841874410313e-22 3.7847460340936e-14 3.385160210089247e-14 3.9958582400435236e-15
5.015371051989984 2.972987297151208e-22 3.957906729366282e-14 3.54068706214072e-14 4.172196672255625e-15
5.091171501069577 3.0609228060270724e-22 4.136561991473598e-14 3.701098667524826e-14 4.354633239487729e-15
5.129500256944802 3.1046648329514996e-22 4.227262444589095e-14 3.782606848882663e-14 4.44655595706431e-15
5.168117569889187 3.1483838383010022e-22 4.3190625362643446e-14 3.865080766913423e-14 4.539817693509216e-15
5.20702561229733 3.19323568319681e-22 4.413571033273071e-14 3.9494179674751155e-14 4.64153065797956e-15
5.246226572918644 3.237918440016143e-22 4.5090222777307095e-14 4.0346239722146814e-14 4.743983055160286e-15
5.265937586045735 3.2601906113124626e-22 4.5570955307597945e-14 4.077548103456649e-14 4.795474273031456e-15
5.285722656980489 3.2824135749715394e-22 4.605397331417028e-14 4.1206837794127325e-14 4.847135520042968e-15
5.305582063971359 3.30458504459227e-22 4.6539252390784595e-14 4.1640290647368356e-14 4.898961743416246e-15
5.3255160863122235 3.326878650602092e-22 4.702925445044666e-14 4.207790088634518e-14 4.9513535641014815e-15
5.365609099470188 3.372655589164351e-22 4.80352944054649e-14 4.2975544481031664e-14 5.059749924433243e-15
5.406003951863644 3.4182584011892574e-22 4.9051318051674194e-14 4.3882410454592065e-14 5.1689075970821284e-15
5.446702915881641 3.46367227293517e-22 5.007718570692825e-14 4.4798399278562285e-14 5.278786428365975e-15
5.487708281020852 3.5092022025120474e-22 5.111741024911222e-14 4.572760006600343e-14 5.389810183108789e-15
5.529022354014368 3.5573372194094086e-22 5.220869227683702e-14 4.670313317347518e-14 5.505559103361835e-15
5.570647458961463 3.605412804667339e-22 5.3312629648172285e-14 4.7690523616577884e-14 5.6221060315943905e-15
5.612585937458331 3.6534284853865324e-22 5.4429337400986544e-14 4.868992720107609e-14 5.739410199910456e-15
5.654840148729818 3.7018605529186334e-22 5.556608781302041e-14 4.970808304721122e-14 5.858004765809176e-15
5.67608639626678 3.728146292871897e-22 5.6170899181995276e-14 5.025083929295688e-14 5.920059889038396e-15
5.686739436050992 3.7413168581342565e-22 5.647513183744232e-14 5.0523961053824575e-14 5.951170783617741e-15
5.6974124697621304 3.754506751158011e-22 5.678060091658761e-14 5.079826453305151e-14 5.98233638353608e-15
5.718818669136295 3.780947263893806e-22 5.739530647556949e-14 5.1350477345869835e-14 6.044829129699668e-15
5.740305295436557 3.808062852931673e-22 5.802411586997802e-14 5.191611667996863e-14 6.107999190009422e-15
5.7835210386641895 3.867369692176671e-22 5.937142082745023e-14 5.313282571432052e-14 6.238595113129695e-15
5.827062130521658 3.92885733334001e-22 6.076945487332294e-14 5.439816104417429e-14 6.3712938291486695e-15
5.8489554468988025 3.9651324092067006e-22 6.156096808190068e-14 5.511798806564775e-14 6.442980016252933e-15
5.870931020387893 4.002097685161014e-22 6.236832717423115e-14 5.58533197808669e-14 6.515007393364254e-15
5.892989160043636 4.0398099403626654e-22 6.319256862670681e-14 5.6605197360670454e-14 6.587371266036336e-15
5.915130176081913 4.08002055700022e-22 6.406135066217751e-14 5.739895762755299e-14 6.662393034624528e-15
5.95966208400165 4.179271504055436e-22 6.611372918891808e-14 5.928016413551442e-14 6.833565053403655e-15
6.004529249263818 4.3051504176014075e-22 6.861779018372304e-14 6.159147323705317e-14 7.026316946669876e-15
6.027089341400364 4.385812314908726e-22 7.016606233161869e-14 6.302825978199019e-14 7.137802549628478e-15
6.049734195844842 4.476220428589683e-22 7.188151000152058e-14 6.462558807913244e-14 7.255921922388143e-15
6.095279466722835 4.721335116181726e-22 7.638848258516957e-14 6.884182475546437e-14 7.546657829705214e-15
6.141167624020661 5.072567223445139e-22 8.268908683519255e-14 7.476459661494455e-14 7.924490220247998e-15
6.164241091010745 5.292690001069772e-22 8.660151843577811e-14 7.843964927055104e-14 8.161869165227038e-15
6.187401249150058 5.532220888544101e-22 9.086094007623669e-14 8.245533075694728e-14 8.405609319289422e-15
6.1990139391386085 5.648589147046804e-22 9.294628440502036e-14 8.441665478928623e-14 8.529629615734159e-15
6.204828454712694 5.708920047489129e-22 9.402712840079135e-14 8.543485869668693e-14 8.592269704104444e-15
6.210648424152782 5.753596710647362e-22 9.485184777364295e-14 8.620626279079851e-14 8.645584982844435e-15
6.233982942956859 5.903744195243028e-22 9.769280383767244e-14 8.886156458139602e-14 8.8312392562764e-15
6.239830258556775 5.922421946805452e-22 9.809379905757819e-14 8.923696858932096e-14 8.856830468257257e-15
6.245683058788269 5.924722998670904e-22 9.822395686926089e-14 8.934149482492168e-14 8.882462044339228e-15
6.257405133728602 5.921948714619627e-22 9.836222614535814e-14 8.943500005302717e-14 8.927226092330993e-15
6.269149208991335 5.894449198094411e-22 9.808921715938068e-14 8.914602398934676e-14 8.943193170033926e-15
6.280915325867298 5.824295684514631e-22 9.710370182611524e-14 8.818014820079358e-14 8.923553625321666e-15
6.304513850009849 5.650928964108547e-22 9.456727703240528e-14 8.571521632671235e-14 8.852060705692923e-15
6.32820103803542 5.441134660509388e-22 9.139852243459064e-14 8.265222910260829e-14 8.74629333198235e-15
6.3519772230701035 5.252049289800746e-22 8.855379105732942e-14 7.990235780430543e-14 8.651433253023987e-15
6.375842739491607 5.091075901776229e-22 8.616216472273495e-14 7.759440692777929e-14 8.567757794955663e-15
6.399797922933955 4.971401525025649e-22 8.445289379974043e-14 7.592815726756909e-14 8.524736532171365e-15
6.42384311029221 4.871297163799691e-22 8.306326198259615e-14 7.45734475596832e-14 8.489814422912958e-15
6.447978639727206 4.804748903065086e-22 8.223632978066745e-14 7.374973072443572e-14 8.486599056231711e-15
6.472204850670314 4.750194994630572e-22 8.160807343420127e-14 7.311839851957933e-14 8.489674914621929e-15
6.496522083828205 4.721266952254749e-22 8.141584025221726e-14 7.289739517418654e-14 8.51844507803073e-15
