Dust emission spectrum from A.P. Jones, M. Kohler, N. Ysard, M. Bocchio, and L. Verstraete (2017), A&A, 602A, 46J 
inside the DustPedia framework.

lambda    nu*dP/dnu     j_nu    j_nu(carb.) j_nu(sil)
 (um)   (erg s-1 H-1) (Jy cm2 sr-1 H-1)
0.9927057738263894 1.2896022670286555e-23 3.398175221566972e-16 3.398173636369077e-16 1.5851978945100008e-22
1.0001793341362166 1.3113210176221513e-23 3.481419294859164e-16 3.481417386889391e-16 1.9079697730553077e-22
1.0077091589558085 1.3331172878565812e-23 3.5659315243070465e-16 3.5659292308876023e-16 2.2934194452920678e-22
1.0114953028030835 1.344043384219363e-23 3.6086651944970253e-16 3.608662681319667e-16 2.513177357466567e-22
1.0152956718711033 1.3549875489481287e-23 3.6517183373030386e-16 3.6517155842256735e-16 2.753077365482749e-22
1.0229392996569957 1.3769177831607514e-23 3.738757573949919e-16 3.7387542734377888e-16 3.3005121299707763e-22
1.0267826658714554 1.3878789142649943e-23 3.782679440900371e-16 3.782675828783431e-16 3.6121169393375868e-22
1.0306404723013447 1.3988559513470488e-23 3.826922089517943e-16 3.8269181376911674e-16 3.9518267775569103e-22
1.03451277320114 1.409848520247352e-23 3.871486446292081e-16 3.8714821242435166e-16 4.322048562813077e-22
1.0383996230291617 1.4208562586707926e-23 3.9163734657420825e-16 3.9163687403585347e-16 4.725383548073305e-22
1.0403485208654093 1.4263657065727049e-23 3.9389382803054976e-16 3.938933339967389e-16 4.940338108649752e-22
1.0423010764483396 1.4318788165610866e-23 3.961584131977857e-16 3.961578967335872e-16 5.164641984843783e-22
1.0462171883269815 1.4429158564789828e-23 4.0071194603007416e-16 4.007113817441932e-16 5.642858809125491e-22
1.0471985131304309 1.445677340963823e-23 4.0185541429155456e-16 4.018548374036885e-16 5.768878659073487e-22
1.048180758391296 1.4484397052924478e-23 4.0300091989586284e-16 4.030003301368053e-16 5.897590575578704e-22
1.0501480137395462 1.453967053984405e-23 4.0529804988453764e-16 4.052974335534963e-16 6.163310414334078e-22
1.0521189612883777 1.4594978640943245e-23 4.0760334963842787e-16 4.076027055915736e-16 6.440468543432575e-22
1.0531058218030118 1.4622608489009014e-23 4.0875803139436477e-16 4.0875737304517027e-16 6.583491944785103e-22
1.0540936079674168 1.4650125418721862e-23 4.0991136120408735e-16 4.099106882456851e-16 6.729584021109803e-22
1.058054026499678 1.476027242080087e-23 4.1454497047382646e-16 4.145442359159662e-16 7.345578602359709e-22
1.0590464539527713 1.4787828773816318e-23 4.157084541634624e-16 4.1570770338292653e-16 7.507805358914592e-22
1.06003981227728 1.48153928824993e-23 4.168739740018928e-16 4.168732066562651e-16 7.673456275826786e-22
1.0620293250338977 1.4870544200820306e-23 4.192111294512685e-16 4.192103279206119e-16 8.015306564745775e-22
1.0660195594769086 1.4980938111769523e-23 4.239099556314296e-16 4.2390908131074627e-16 8.7432068336e-22
1.070024785945596 1.509145165769798e-23 4.2864157071011115e-16 4.2864061730380757e-16 9.534063035759591e-22
1.0740450607676866 1.5202082497784976e-23 4.3340610077520966e-16 4.334050614723672e-16 1.0393028425364777e-21
1.07808044048254 1.5312828450458345e-23 4.3820367650289774e-16 4.382025439376511e-16 1.1325652466877291e-21
1.0861967418109137 1.5534486464580812e-23 4.478935721546518e-16 4.478922285317645e-16 1.3436228871420182e-21
1.0902777775684922 1.564500543877663e-23 4.527748670685955e-16 4.527734043156268e-16 1.4627529687332166e-21
1.0943741465085532 1.575562570630402e-23 4.576894616364446e-16 4.576878697119126e-16 1.5919245319163744e-21
1.1026131145906286 1.597716515535657e-23 4.676191749051871e-16 4.676172912555943e-16 1.8836495926772454e-21
1.1109141095355224 1.6199096769343536e-23 4.776840227544148e-16 4.776817968198734e-16 2.2259345413950288e-21
1.1192775983109025 1.6421239771873464e-23 4.878801932410766e-16 4.878775662323869e-16 2.627008689611479e-21
1.1277040513999907 1.6642784163693322e-23 4.9818489400314985e-16 4.981817976547997e-16 3.0963483500872776e-21
1.1361939428280308 1.6864689785709505e-23 5.086279945492454e-16 5.08624349698666e-16 3.644850579536e-21
1.1447477501889525 1.7086962283851506e-23 5.192112482869635e-16 5.192069632575271e-16 4.285029436433865e-21
1.1533659546722406 1.730969335392316e-23 5.29939064812135e-16 5.29934033568511e-16 5.031243623914398e-21
1.1707974979042381 1.7757262447773024e-23 5.518578596036248e-16 5.518509496224289e-16 6.90998119586008e-21
1.1884924949847024 1.8206834623976047e-23 5.743813421645184e-16 5.743718993841727e-16 9.442780345721602e-21
1.2064549276569216 1.8661618976100008e-23 5.97626508068522e-16 5.976136677550678e-16 1.2840313454081059e-20
1.2246888378427687 1.9118732751476092e-23 6.215188360946102e-16 6.215014612852726e-16 1.737480933755076e-20
1.2431983285522175 1.9577988817551795e-23 6.460675476507486e-16 6.46044150850285e-16 2.3396800463503208e-20
1.2619875648066055 2.0040262695789594e-23 6.713174229370997e-16 6.712860675903618e-16 3.135534673780794e-20
1.3004222497298317 2.097213222116905e-23 7.239297287780291e-16 7.238742063513093e-16 5.552242671996189e-20
1.3400274889804893 2.1920144464374815e-23 7.796982375740383e-16 7.796017223037805e-16 9.651527025770265e-20
1.3808389325824078 2.289211252894382e-23 8.390702605945422e-16 8.389054831002966e-16 1.6477749424565773e-19
1.4228933163050095 2.3902312043835617e-23 9.027794906889463e-16 9.025030583500538e-16 2.7643233889235515e-19
1.466228494730424 2.4976487688624937e-23 9.720809990264218e-16 9.716250818871898e-16 4.559171392318357e-19
1.5108834753276823 2.6123965312048232e-23 1.0477061730795007e-15 1.0469666013230727e-15 7.395717564280474e-19
1.5568984535646726 2.7359011720942165e-23 1.1306550473198124e-15 1.1294738312303803e-15 1.1812160894324209e-18
1.6043148490894465 2.8708025710844114e-23 1.2225379877911657e-15 1.2206770040802841e-15 1.8609837108819336e-18
1.6531753430134553 3.020325664551037e-23 1.325385226005496e-15 1.3224964957609535e-15 2.8887302445422567e-18
1.7035239163302658 3.18850062602385e-23 1.4417971900784784e-15 1.43737818767151e-15 4.419002406968809e-18
1.755405889504358 3.381680140556197e-23 1.5757216828676196e-15 1.569056519670106e-15 6.66516319751388e-18
1.8088679632656115 3.604784043661926e-23 1.7308345354939986e-15 1.7209189252442536e-15 9.91561024974539e-18
1.8639582606462262 3.863719601304907e-23 1.911662483832441e-15 1.8971071647972137e-15 1.4555319035227483e-17
1.9207263702978936 4.166040924325782e-23 2.124019325539287e-15 2.102929164233989e-15 2.1090161305297904e-17
1.979223391128241 4.520816540283352e-23 2.375095797656389e-15 2.344919901202432e-15 3.0175896453957304e-17
2.039501978296691 4.938381873579255e-23 2.6734879676125314e-15 2.63083828893053e-15 4.2649678682000994e-17
2.1016163906111602 5.431774742030535e-23 3.0301535130162774e-15 2.97058397644087e-15 5.956953657540703e-17
2.1656225393682647 6.014627630742595e-23 3.457490065865136e-15 3.3752405950111646e-15 8.224947085397096e-17
2.231578038680979 6.700599670651212e-23 3.969128720653273e-15 3.85682977499976e-15 1.1229894565351413e-16
2.299542257339062 7.505435833487891e-23 4.5812790322761275e-15 4.429614955559633e-15 1.5166407671649557e-16
2.369576372248914 8.446739805811535e-23 5.31287086575699e-15 5.110199469091549e-15 2.0267139666544e-16
2.4417434235010123 9.543359533093823e-23 6.185442090898318e-15 5.9173813135026005e-15 2.6806077739571843e-16
2.5161083711144245 1.0816304775282747e-22 7.223999242199427e-15 6.872970355348915e-15 3.5102888685051125e-16
2.5927381535095444 1.2288500267083104e-22 8.457207278891222e-15 8.001952210624798e-15 4.55255068266425e-16
2.6717017477616296 1.3982808728606336e-22 9.916349490316519e-15 9.331454348600463e-15 5.848951417160549e-16
2.753070231689431 1.5923066287198061e-22 1.1636260270558505e-14 1.0891673059482294e-14 7.445872110762081e-16
2.836916847834745 1.8140159956150854e-22 1.3660202952381677e-14 1.2720729302903265e-14 9.394736494784144e-16
2.9233170693905177 2.0675658935581053e-22 1.6043706738617435e-14 1.4868764513156416e-14 1.1749422254610181e-15
2.967498994190263 2.207068297469098e-22 1.738504367398984e-14 1.6077855867392356e-14 1.3071878065974816e-15
3.0123486681368425 2.355900674157323e-22 1.8837863597564362e-14 1.738545447488975e-14 1.4524091226746172e-15
3.0578761833420214 2.529950176130637e-22 2.0535311633256393e-14 1.8923185440925382e-14 1.6121261923310103e-15
3.1040917844459814 2.7188959268065374e-22 2.2402504411209933e-14 2.0616630482064972e-14 1.78587392914496e-15
3.127460860933648 2.837400594551252e-22 2.355493834490543e-14 2.167605924621459e-14 1.8788790986908357e-15
3.1510058709225794 2.970303521315478e-22 2.4843883010324434e-14 2.2868076448252612e-14 1.9758065620718275e-15
3.162844764501044 3.0609599062649893e-22 2.5698332913314278e-14 2.3672372826824783e-14 2.0259600864894927e-15
3.1747281389236908 3.159070142525297e-22 2.6621666789037037e-14 2.4544538122993455e-14 2.0771286660435886e-15
3.1986289994194426 3.399036427042184e-22 2.885952124668475e-14 2.6676693384069833e-14 2.1828278626149256e-15
3.2227097969389145 3.8530029301269315e-22 3.296021012074584e-14 3.066539692595304e-14 2.2948131947928003e-15
3.2348180950136065 4.244446771322773e-22 3.6445204244468794e-14 3.409063371134875e-14 2.3545705331200512e-15
3.240889293275058 4.526879480256107e-22 3.894328307349589e-14 3.655719202093946e-14 2.3860910525564236e-15
3.2469718861334385 4.85076704292163e-22 4.180790250144672e-14 3.938919692474723e-14 2.4187055766995068e-15
3.2714166318528037 6.523344085103023e-22 5.6646825521435545e-14 5.409335402525692e-14 2.5534714961786313e-15
3.2744851364798273 6.633283917188872e-22 5.765553982979334e-14 5.508618987184657e-14 2.5693499579467696e-15
3.2775565192852394 6.7459124661354465e-22 5.868948845326582e-14 5.610418098904638e-14 2.5853074642194492e-15
3.283707930232385 6.66992326289044e-22 5.813729113311014e-14 5.5523453102575246e-14 2.6138380305349004e-15
3.2898708863219004 6.380846912426018e-22 5.572198927760977e-14 5.3082192907628795e-14 2.6397963699809698e-15
3.29141343181113 6.312804851613064e-22 5.515364688886441e-14 5.250733240425573e-14 2.646314484608671e-15
3.292184975758714 6.279391537591051e-22 5.487458199739874e-14 5.222500417097704e-14 2.6495778264216938e-15
3.295272960557952 6.065387528969149e-22 5.3054152547099646e-14 5.039188208476383e-14 2.662270462335815e-15
3.3076538914384823 5.32366992378443e-22 4.674128125855331e-14 4.402803418795854e-14 2.7132470705947642e-15
3.310756385682612 5.17295951212141e-22 4.546066012118638e-14 4.27345646352283e-14 2.7260954859580833e-15
3.313861789986515 5.034049076459621e-22 4.428139251684957e-14 4.154240683874136e-14 2.7389856781082157e-15
3.3200813396944477 4.847225333426856e-22 4.271804472256195e-14 3.995133078006456e-14 2.766713942497383e-15
3.345076488085796 4.576189933918207e-22 4.063305979362889e-14 3.774277082905335e-14 2.8902889645755515e-15
3.3482140837626964 4.603445651039847e-22 4.0913409438743885e-14 3.800638008042666e-14 2.90702935831722e-15
3.3513546224236106 4.630880103446768e-22 4.119583926752617e-14 3.827199443331167e-14 2.923844834214493e-15
3.3576445397418455 4.761638988735483e-22 4.243855771476688e-14 3.94795547088241e-14 2.959003005942784e-15
3.3702598118196083 5.195262244595571e-22 4.64772356488403e-14 4.344448764214964e-14 3.0327480066906593e-15
3.382922481734668 5.337445676793179e-22 4.792862249162604e-14 4.482419645340254e-14 3.104426038223509e-15
3.389271646505754 5.410204744765369e-22 4.867315660035123e-14 4.5532399797852594e-14 3.140756802498626e-15
3.395632727569191 5.48843931001427e-22 4.946966962416449e-14 4.629147170526613e-14 3.178197918898362e-15
3.421196662673239 5.849221365911519e-22 5.311846671537935e-14 4.978528116845331e-14 3.333185546926038e-15
3.4276182099114902 5.827278199802937e-22 5.3018523219771775e-14 4.965075048243579e-14 3.3677727373359755e-15
3.4340518103208963 5.641953503503715e-22 5.142872752770754e-14 4.802824177931693e-14 3.400485748390616e-15
3.4469541582030403 5.388564428532875e-22 4.930353066892565e-14 4.584025740675883e-14 3.463273262166827e-15
3.472904465399547 5.404709704633282e-22 4.9823546969001504e-14 4.621563805105705e-14 3.6079089179444826e-15
3.4990501388274233 5.379536562562555e-22 4.996483554268546e-14 4.6208922562159836e-14 3.755912980525625e-15
3.5253949054701885 5.032830960772058e-22 4.7096599331656704e-14 4.3196906147875306e-14 3.8996931837814e-15
3.5519380250092896 4.707652558496239e-22 4.438530570424054e-14 4.0341105269695133e-14 4.04420043454541e-15
3.578680990867387 4.648252382436506e-22 4.415522682240328e-14 3.995264389661047e-14 4.2025829257928076e-15
3.605625307711299 4.694158507900154e-22 4.492703695374551e-14 4.0557653416988125e-14 4.3693835367573795e-15
3.660119384959845 4.879194302513842e-22 4.740376075796927e-14 4.2683975673529856e-14 4.7197850844393915e-15
3.715437065384467 5.084116319236832e-22 5.014121121191761e-14 4.5052090075419435e-14 5.089121136498167e-15
3.8285932144167436 5.5666663231039215e-22 5.657230159080523e-14 5.0689607408231515e-14 5.882694182573719e-15
3.94519561050918 6.086669228027462e-22 6.374082430579884e-14 5.699313390720607e-14 6.747690398592768e-15
4.06534921144712 6.63297849033863e-22 7.157739346074737e-14 6.389442656704668e-14 7.682966893700696e-15
4.189162171576248 7.200313992006721e-22 8.00659833333178e-14 7.137590488617181e-14 8.690078447145993e-15
4.316745939156006 7.784107670162767e-22 8.919381842772276e-14 7.942877857334382e-14 9.765039854378931e-15
4.448215356677963 8.379241739573688e-22 9.893727807775932e-14 8.804462043284491e-14 1.0892657644914423e-14
4.58368876423945 8.9822706906094e-22 1.0928755072448296e-13 9.721355439247833e-14 1.2073996332004621e-14
4.723288106065518 9.590233042063276e-22 1.2023835630782238e-13 1.0692224726502182e-13 1.3316109042800592e-14
4.867139040275056 1.0197213395363542e-21 1.3174213394862916e-13 1.171565281659152e-13 1.458560578271395e-14
4.940699165968905 1.0500489582620622e-21 1.377106069495612e-13 1.2247622642689748e-13 1.5234380522663708e-14
5.015371051989984 1.0801369414593138e-21 1.437974953117164e-13 1.279070578319035e-13 1.5890437479812897e-14
5.091171501069577 1.110367679452152e-21 1.5005620953061984e-13 1.334882387824855e-13 1.6567970748134363e-14
5.129500256944802 1.1253510608996787e-21 1.5322601738614219e-13 1.3631725825328513e-13 1.6908759132857066e-14
5.168117569889187 1.1402907387668326e-21 1.5642905259336945e-13 1.391748374728414e-13 1.725421512052808e-14
5.20702561229733 1.1555929820403696e-21 1.597217436415787e-13 1.4209019634738674e-13 1.7631547294191938e-14
5.246226572918644 1.1707981461282998e-21 1.630416275584755e-13 1.4503042522927232e-13 1.801120232920317e-14
5.265937586045735 1.178362132033708e-21 1.6471149836682762e-13 1.465096472253867e-13 1.8201851141440913e-14
5.285722656980489 1.1858992294086773e-21 1.663878430217492e-13 1.4799482247150122e-13 1.8393020550248032e-14
5.305582063971359 1.19340857724957e-21 1.680705511659714e-13 1.4948586104181307e-13 1.858469012415832e-14
5.3255160863122235 1.2009485039859121e-21 1.697678776639933e-13 1.5098949087760692e-13 1.877838678638639e-14
5.365609099470188 1.2163957312386762e-21 1.7324605349957437e-13 1.5406689717405939e-13 1.9179156325514978e-14
5.406003951863644 1.2317393299695106e-21 1.7675210747692497e-13 1.5716982815057278e-13 1.9582279326352192e-14
5.446702915881641 1.2469735033133386e-21 1.8028531216703179e-13 1.602977194550364e-13 1.9987592711995393e-14
5.487708281020852 1.262198618347995e-21 1.8386037870308666e-13 1.6346368361298207e-13 2.039669509010457e-14
5.529022354014368 1.2782373639447023e-21 1.8759846782820238e-13 1.6677530755089183e-13 2.0823160277310545e-14
5.570647458961463 1.2942022050961667e-21 1.9137149222086382e-13 1.7011943432000126e-13 2.1252057900862474e-14
5.612585937458331 1.3100917075618175e-21 1.9517947008499454e-13 1.7349624811529288e-13 2.168322196970165e-14
5.654840148729818 1.3260613783541336e-21 1.990459714561275e-13 1.7692731305913466e-13 2.2118658396992815e-14
5.67608639626678 1.3347044643979882e-21 2.010960515439047e-13 1.7874947545098779e-13 2.234657609291688e-14
5.686739436050992 1.339028737470321e-21 2.021262227986536e-13 1.7966543351437935e-13 2.2460789284274193e-14
5.6974124697621304 1.343355062736028e-21 2.0315986296459789e-13 1.805846944106592e-13 2.2575168553938717e-14
5.718818669136295 1.3520146122297573e-21 2.0523770265036595e-13 1.8243328784425654e-13 2.2804414806109414e-14
5.740305295436557 1.360877588213268e-21 2.0735928453111522e-13 1.843232391698166e-13 2.3036045361298605e-14
5.7835210386641895 1.380203308045908e-21 2.1188724624697478e-13 1.883724502036216e-13 2.3514796043353205e-14
5.827062130521658 1.4001531664178526e-21 2.1656817095477458e-13 1.9256740384836944e-13 2.4000767106405105e-14
5.8489554468988025 1.4118999674692896e-21 2.1920561500139945e-13 1.949420617000335e-13 2.426355330136591e-14
5.870931020387893 1.4238391450746277e-21 2.2188980037332408e-13 1.9736236830546639e-13 2.452743206785766e-14
5.892989160043636 1.4359875620970216e-21 2.246237914766038e-13 1.9983140802513714e-13 2.4792383451466646e-14
5.915130176081913 1.4489180386984153e-21 2.2749798747597005e-13 2.0243084383914137e-13 2.506714363682875e-14
5.95966208400165 1.4807978266239063e-21 2.3425390381541674e-13 2.0855838314240357e-13 2.569552067301318e-14
6.004529249263818 1.5210976232620047e-21 2.424406755574029e-13 2.160367519089692e-13 2.640392364843367e-14
6.027089341400364 1.546885566838445e-21 2.4747723183162807e-13 2.2066283943698087e-13 2.6814392394647177e-14
6.049734195844842 1.575717575226649e-21 2.5303704419872005e-13 2.2578760813524117e-13 2.7249436063478887e-14
6.095279466722835 1.6537839431913672e-21 2.675727158428725e-13 2.392499659692782e-13 2.8322749873594288e-14
6.141167624020661 1.765300582236799e-21 2.8776571448895527e-13 2.580450201517791e-13 2.9720694337176165e-14
6.164241091010745 1.835152904917158e-21 3.0027647206908446e-13 2.6967600797352727e-13 3.060046409555712e-14
6.187401249150058 1.910852419113909e-21 3.13837517780915e-13 2.823340519321101e-13 3.150346584880478e-14
6.1990139391386085 1.9475813757852433e-21 3.204702054676736e-13 2.8850733954641e-13 3.196286592126368e-14
6.204828454712694 1.9665964862641057e-21 3.239026274467235e-13 2.9170776455761874e-13 3.2194862889104756e-14
6.210648424152782 1.980647106669403e-21 3.26522777495774e-13 2.941307898858198e-13 3.239198760995417e-14
6.233982942956859 2.0276722467132607e-21 3.355311146523969e-13 3.024541306056179e-13 3.3076984046778925e-14
6.239830258556775 2.033399331369871e-21 3.367944182410046e-13 3.036240907030531e-13 3.317032753795152e-14
6.245683058788269 2.0339712701595727e-21 3.3720514251600865e-13 3.039413373940139e-13 3.326380512199475e-14
6.257405133728602 2.0327688404038217e-21 3.3763829782487576e-13 3.0421187572497064e-13 3.3426422099905084e-14
6.269149208991335 2.023711368251829e-21 3.3676473780202334e-13 3.0328339322966865e-13 3.348134457235469e-14
6.280915325867298 2.001152619751451e-21 3.336357524113028e-13 3.00232600853273e-13 3.340315155802978e-14
6.304513850009849 1.945586448620928e-21 3.255903831844641e-13 2.924639839440939e-13 3.312639924037022e-14
6.32820103803542 1.87870257136022e-21 3.1557873463898975e-13 2.828571477350939e-13 3.272158690389586e-14
6.3519772230701035 1.8184927498339363e-21 3.066125584936621e-13 2.7425496948650534e-13 3.235758900715681e-14
6.375842739491607 1.767090305893495e-21 2.9906512680988044e-13 2.670296407848276e-13 3.203548602505277e-14
6.399797922933955 1.729031547207349e-21 2.937234437766517e-13 2.618583142668668e-13 3.186512950978486e-14
6.42384311029221 1.6970784262957855e-21 2.8937850676813134e-13 2.57653471460669e-13 3.1725035307462355e-14
6.447978639727206 1.6758457586890073e-21 2.8683164771662835e-13 2.551284670067233e-13 3.170318070990499e-14
6.472204850670314 1.6583594888056697e-21 2.849051946198742e-13 2.532004449064801e-13 3.1704749713394076e-14
6.496522083828205 1.6490315422639501e-21 2.8436707767967164e-13 2.5256503980634117e-13 3.180203787333046e-14
